# Wavelength | Total | n= 1 | ...
  300.000000  2.73000474035752559E+04  1.50931108441634242E+04  9.87381447523520183E+03  2.10724583481515401E+03  2.11920930655328249E+02  1.33771391275636482E+01  5.60319108655230935E-01  1.74442827744504154E-02  4.16187154167988100E-04
  302.000000  2.72116374876213522E+04  1.51677002371346935E+04  9.78125222123550157E+03  2.04663643211117710E+03  2.02903456653393846E+02  1.26082599193705569E+01  5.20524626854743322E-01  1.59798578495113329E-02  3.76082505580516060E-04
  304.000000  2.71217783736451529E+04  1.52394554871861037E+04  9.68764434540491311E+03  1.98795312594744860E+03  1.94336386806039457E+02  1.18901104773838426E+01  4.83926033258871680E-01  1.46516027177072683E-02  3.40187283438249963E-04
  306.000000  2.70309963699347281E+04  1.53086118900219444E+04  9.59331141415963066E+03  1.93119229020823764E+03  1.86197616645649163E+02  1.12191598920850648E+01  4.50245120259981146E-01  1.34458584071946129E-02  3.08028511870978288E-04
  308.000000  2.69398154027767923E+04  1.53754183693402520E+04  9.49856435130096361E+03  1.87634276746056867E+03  1.78465939643229774E+02  1.05921165914541309E+01  4.19228849262692049E-01  1.23504020427855129E-02  2.79189018527562676E-04
  310.000000  2.68487524955132649E+04  1.54401350365130766E+04  9.40370195651282120E+03  1.82338633063843804E+03  1.71121004851071604E+02  1.00059123897763076E+01  3.90647016426425076E-01  1.13542910534181977E-02  2.53300602133898600E-04
  312.000000  2.67583132443491304E+04  1.55030305316325685E+04  9.30900859944707190E+03  1.77229817994197924E+03  1.64143277763375067E+02  9.45768766381623216E+00  3.64290137635040701E-01  1.04477246207689365E-02  2.30038062202935465E-04
  314.000000  2.66689873325569351E+04  1.55643791745325943E+04  9.21475211163286804E+03  1.72304746560432000E+03  1.57514004641689553E+02  8.94477757785205618E+00  3.39967533160378865E-01  9.62192046804897887E-03  2.09113979852100013E-04
  316.000000  2.65812441265653324E+04  1.56244579593618473E+04  9.12118189488633834E+03  1.67559782777885994E+03  1.51215180383599488E+02  8.46469928138970928E+00  3.17505593863344038E-01  8.86900528917929781E-03  1.90274153075567780E-04
  318.000000  2.64955283995082391E+04  1.56835434310655837E+04  9.02852726151595562E+03  1.62990794561745088E+03  1.45229519879204418E+02  8.01514000699965301E+00  2.96746212141268118E-01  8.18191730032918375E-03  1.73293602362974098E-04
  320.000000  2.64122562298152843E+04  1.57419084864784345E+04  8.93699601841611184E+03  1.58593208856843762E+03  1.39540432697442810E+02  7.59394600006536891E+00  2.77545362158509168E-01  7.55431955963911314E-03  1.57973073491190862E-04
  322.000000  2.63318111240419312E+04  1.57998191464150059E+04  8.84677330411264666E+03  1.54362066395366605E+03  1.34132000869719917E+02  7.19911221689356040E+00  2.59771815172613885E-01  6.98052284838353038E-03  1.44135973832061338E-04
  324.000000  2.62545404140590690E+04  1.58575313479460747E+04  8.75802068495165804E+03  1.50292075592193623E+03  1.28988959487406646E+02  6.82877273228924597E+00  2.43305976978371641E-01  6.45541703920304681E-03  1.31625686800060658E-04
  326.000000  2.61807519786632620E+04  1.59152878077658079E+04  8.67087551387901294E+03  1.46377665186916693E+03  1.24096679798300997E+02  6.48119180213464929E+00  2.28038835629267328E-01  5.97440999574248149E-03  1.20303216265599101E-04
  328.000000  2.61107113385018311E+04  1.59733150080947762E+04  8.58545055265270094E+03  1.42613035332547952E+03  1.19441154471322534E+02  6.15475553061747327E+00  2.13871008657605055E-01  5.53337315426889482E-03  1.10045119017538684E-04
  330.000000  2.60446391707223156E+04  1.60318203557949219E+04  8.50183385582182018E+03  1.38992206910105256E+03  1.15008984694352378E+02  5.84796409545033136E+00  2.00711879998589554E-01  5.12859303285399196E-03  1.00741688801601046E-04
  332.000000  2.59827092859997756E+04  1.60909895633341530E+04  8.42008891242047503E+03  1.35509068914196951E+03  1.10787368774361454E+02  5.55942448772153774E+00  1.88478817732845666E-01  4.75672799852094094E-03  9.22953601890758951E-05
  334.000000  2.59250471055600210E+04  1.61509842969528545E+04  8.34025503904591278E+03  1.32157423806284464E+03  1.06764091918868388E+02  5.28784372593613483E+00  1.77096464598313214E-01  4.41476969845152212E-03  8.46193046379255600E-05
  336.000000  2.58717286695947478E+04  1.62119401329507273E+04  8.26234801581372085E+03  1.28931030769389622E+03  1.02927516891189896E+02  5.03202250640167748E+00  1.66496093990585875E-01  4.10000862881458941E-03  7.76361946826591945E-05
  338.000000  2.58227802012459870E+04  1.62739648576035670E+04  8.18636095461978584E+03  1.25823646821531338E+03  9.92665752474961067E+01  4.79084925445822574E+00  1.56615024875392361E-01  3.81000337488883716E-03  7.12771152924306881E-05
  340.000000  2.57781782422612196E+04  1.63371371399868385E+04  8.11226538716572304E+03  1.22829065756181762E+03  9.57707588802212797E+01  4.56329454322048544E+00  1.47396089683067194E-01  3.54255310968411806E-03  6.54806041383975963E-05
  342.000000  2.57378503677255794E+04  1.64015056001461380E+04  8.04001255832229526E+03  1.19941154878441648E+03  9.24301116095268185E+01  4.34840584856764067E+00  1.38787149847366009E-01  3.29567298591915397E-03  6.01918048586732733E-05
  344.000000  2.57016764781612728E+04  1.64670882878096236E+04  7.96953490859520389E+03  1.17153889497511955E+03  8.92352205821581066E+01  4.14530261115693932E+00  1.30740654195141720E-01  3.06757209861537690E-03  5.53617194538781130E-05
  346.000000  2.56694906579700328E+04  1.65338725793931626E+04  7.90074772770934851E+03  1.14461385121762987E+03  8.61772072554152544E+01  3.95317157830687860E+00  1.23213235892822889E-01  2.85663373327764945E-03  5.09465477232564016E-05
  348.000000  2.56410835799001361E+04  1.66018154936017781E+04  7.83355095963603162E+03  1.11857927284909374E+03  8.32477177636190078E+01  3.77126240074656094E+00  1.16165344115043451E-01  2.66139764816221945E-03  4.69071031992520648E-05
  350.000000  2.56162054261300727E+04  1.66708444186475062E+04  7.76783113774660251E+03  1.09337998912917101E+03  8.04389124858232947E+01  3.59888346148346505E+00  1.09560907022480544E-01  2.48054416888991193E-03  4.32082963845506338E-05
  352.000000  2.55945692879005692E+04  1.67408582371586708E+04  7.70346342720627126E+03  1.06896305124028299E+03  7.77434546573241079E+01  3.43539791641864900E+00  1.03367023023003268E-01  2.31287990007369949E-03  3.98186772670621928E-05
  354.000000  2.55758549975432288E+04  1.68117288283602429E+04  7.64031375023916735E+03  1.04527795340842090E+03  7.51544978940159751E+01  3.28021992882388913E+00  9.75536776442147840E-02  2.15732488196520829E-03  3.67100301063481930E-05
  356.000000  2.55597133394749726E+04  1.68833029212080946E+04  7.57824096855423613E+03  1.02227682586029391E+03  7.26656725282591225E+01  3.13281108236608086E+00  9.20934836676930157E-02  2.01290104076528665E-03  3.38570143697804286E-05
  358.000000  2.55457705803648969E+04  1.69554042669179107E+04  7.51709909606395286E+03  9.99914598334501079E+02  7.02710706874493525E+01  2.99267695997043059E+00  8.69614424665138414E-02  1.87872179935115436E-03  3.12368464648514558E-05
  360.000000  2.55336332534400608E+04  1.70278360948530244E+04  7.45673951413503164E+03  9.78149132955384516E+02  6.79652300817202928E+01  2.85936387840122253E+00  8.21347247484707499E-02  1.75398273106268203E-03  2.88290175784998448E-05
  362.000000  2.55228931278796736E+04  1.71003838120538094E+04  7.39701316104998750E+03  9.56941325463204066E+02  6.57431165044093717E+01  2.73245577093403647E+00  7.75924691381149889E-02  1.63795315302509600E-03  2.66150435124930659E-05
  364.000000  2.55131322916200770E+04  1.71728179038787748E+04  7.33777266722268632E+03  9.36255174074523097E+02  6.36001050872313272E+01  2.61157121282519444E+00  7.33155972318313282E-02  1.52996856746988818E-03  2.45782429002287503E-05
  366.000000  2.55039282746965109E+04  1.72448969912735702E+04  7.27887440806088398E+03  9.16057815614114929E+02  6.15319603902274253E+01  2.49636058637529779E+00  6.92866439321436767E-02  1.42942386985963764E-03  2.27035406229055864E-05
  368.000000  2.54948591405946172E+04  1.73163709991327814E+04  7.22018044728435780E+03  8.96319529003478806E+02  5.95348154432646908E+01  2.38650338417045882E+00  6.54896020114696664E-02  1.33576725146780000E-03  2.09772936134068413E-05
  370.000000  2.54855084749729795E+04  1.73869843900510969E+04  7.16156034502720377E+03  8.77013706692635310E+02  5.76051498896920080E+01  2.28170565050989849E+00  6.19097799729105697E-02  1.24849473161904286E-03  1.93871365594117779E-05
  372.000000  2.54754702045318736E+04  1.74564794184567436E+04  7.10289280720195802E+03  8.58116795159277331E+02  5.57397674123718332E+01  2.18169756205510401E+00  5.85336723685144777E-02  1.16714526121317421E-03  1.79218452941578339E-05
  374.000000  2.54643531836680195E+04  1.75245993616429332E+04  7.04406715537222499E+03  8.39608206147672490E+02  5.39357726464800606E+01  2.08623114934178844E+00  5.53488418061068715E-02  1.09129634459769636E-03  1.65712159058812754E-05
  376.000000  2.54517854927727603E+04  1.75910916865230429E+04  6.98498459973591889E+03  8.21470200853512551E+02  5.21905478012810065E+01  1.99507816098870827E+00  5.23438119273438029E-02  1.02056013150058603E-03  1.53259578071424873E-05
  378.000000  2.54374183994051782E+04  1.76557111139442204E+04  6.92555930168284885E+03  8.03687749753841899E+02  5.05017292238245119E+01  1.90802807223572124E+00  4.95079706752169640E-02  9.54579934703525946E-04  1.41775991899625970E-05
  380.000000  2.54209299419082090E+04  1.77182225460299123E+04  6.86571921665937953E+03  7.86248371210398659E+02  4.88671841408989494E+01  1.82488623889254331E+00  4.68314831923691277E-02  8.93027132590919486E-04  1.31184034556331571E-05
  382.000000  2.54020281040970622E+04  1.77784038261914793E+04  6.80540671262253090E+03  7.69141952320993369E+02  4.72849878117042337E+01  1.74547219693809530E+00  4.43052137057536113E-02  8.35598418755630328E-04  1.21412953530812454E-05
  384.000000  2.53804535591292988E+04  1.78360483060208098E+04  6.74457896403868472E+03  7.52360555741011694E+02  4.57534013129220227E+01  1.66961810694617951E+00  4.19206557615972447E-02  7.82013363591477478E-04  1.12397956893427344E-05
  386.000000  2.53559819703141657E+04  1.78909671981567808E+04  6.68320812602692968E+03  7.35898216337789449E+02  4.42708501609610963E+01  1.59716734130462301E+00  3.96698701805225651E-02  7.32012255332911699E-04  1.04079635933930814E-05
  388.000000  2.53284258461070567E+04  1.79429916992547151E+04  6.62128129769279076E+03  7.19750731569946083E+02  4.28359039540454063E+01  1.52797321091744975E+00  3.75454301084616679E-02  6.85354190387451137E-04  9.64034542088395412E-06
  390.000000  2.52976359556155185E+04  1.79919748722760596E+04  6.55880028779694203E+03  7.03915449405153595E+02  4.14472571906911043E+01  1.46189782680840619E+00  3.55403725469001855E-02  6.41815385094783000E-04  8.93192948499657555E-06
  392.000000  2.52635023193331908E+04  1.80377932823085212E+04  6.49578119951015287E+03  6.88391057409959672E+02  4.01037113921689183E+01  1.39881109084354072E+00  3.36481557575205384E-02  6.01187683252504910E-04  8.27810588763296428E-06
  394.000000  2.52259547972997643E+04  1.80803483849076074E+04  6.43225385400713549E+03  6.73177376376447114E+02  3.88041586260372355E+01  1.33858980871584299E+00  3.18626219522803109E-02  5.63277235921666800E-04  7.67463080761158809E-06
  396.000000  2.51849633032975762E+04  1.81195676704219732E+04  6.36826107496733948E+03  6.58275161508239194E+02  3.75475664969667235E+01  1.28111691742926492E+00  3.01779647011494352E-02  5.27903332126810026E-04  7.11759467690769237E-06
  398.000000  2.51405376788799585E+04  1.81554055718074924E+04  6.30385785762219803E+03  6.43685913789303868E+02  3.63329646408888181E+01  1.22628081880936946E+00  2.85887005157211445E-02  4.94897361132263960E-04  6.60339374526228442E-06
  400.000000  2.50927272649376027E+04  1.81878441469930440E+04  6.23911044680758459E+03  6.29411703722250422E+02  3.51594327299623615E+01  1.17397481006982507E+00  2.70896440974880449E-02  4.64101888960086065E-04  6.12870459557444940E-06
  402.000000  2.50416202110938393E+04  1.82168935498512474E+04  6.17409534855795937E+03  6.15455009165733259E+02  3.40260899696491350E+01  1.12409660217948781E+00  2.56758867741032105E-02  4.35369833735445983E-04  5.69046122943649201E-06
  404.000000  2.49873425645545176E+04  1.82425923062466281E+04  6.10889829917657516E+03  6.01818568541428590E+02  3.29320860459452973E+01  1.07654791669668204E+00  2.43427776842678120E-02  4.08563726251328578E-04  5.28583439256697982E-06
  406.000000  2.49300571801604783E+04  1.82650074134391834E+04  6.04361321449990010E+03  5.88505250234141499E+02  3.18765934608335577E+01  1.03123415184868361E+00  2.30859073112507432E-02  3.83555043856199267E-04  4.91221285599201778E-06
  408.000000  2.48699624924360796E+04  1.82842342823329091E+04  5.97834114034562754E+03  5.75517938587317644E+02  3.08588011775138966E+01  9.88064108911093308E-01  2.19010930052802033E-02  3.60223607342916041E-04  4.56718640849423431E-06
  410.000000  2.48072911885761314E+04  1.83003965427281801E+04  5.91318922301009206E+03  5.62859436511732497E+02  2.98779094840265920E+01  9.46949770360378307E-01  2.07843661752156010E-02  3.38457031969318322E-04  4.24853035160227997E-06
  412.000000  2.47423088186845016E+04  1.83136457318733519E+04  5.84826971626611248E+03  5.50532384383627800E+02  2.89331259743241418E+01  9.07806121800443067E-01  1.97319608691871144E-02  3.18150225046296873E-04  3.95419131899692753E-06
  414.000000  2.46753123764012853E+04  1.83241608863095789E+04  5.78369903873497879E+03  5.38539194616200461E+02  2.80236625395573462E+01  8.70551010274483228E-01  1.87403035013872926E-02  2.99204923699893501E-04  3.68227426886657752E-06
  416.000000  2.46066288795085857E+04  1.83321480563316545E+04  5.71959689287457149E+03  5.26882001047274684E+02  2.71487332590286101E+01  8.35105032238546485E-01  1.78060035175319556E-02  2.81529267445803982E-04  3.43103052052680115E-06
  418.000000  2.45366139763429310E+04  1.83378397614074274E+04  5.65608545423379019E+03  5.15562622095889878E+02  2.63075530795769446E+01  8.01391445166780736E-01  1.69258448240123816E-02  2.65037401108234277E-04  3.19884672589645495E-06
  420.000000  2.44656506000481131E+04  1.83414944037049208E+04  5.59328863716061460E+03  5.04582536500175877E+02  2.54993371737647152E+01  7.69336097458262591E-01  1.60967778352869156E-02  2.49649104390855126E-04  2.98423468277994367E-06
  422.000000  2.43941476862276395E+04  1.83433956555443183E+04  5.53133144088405516E+03  4.93942870355037314E+02  2.47233008707603403E+01  7.38867372003333744E-01  1.53159120204187336E-02  2.35289445057173288E-04 -0.00000000000000000E+00
  424.000000  2.43225389857557893E+04  1.83438518351808380E+04  5.47033937786336628E+03  4.83644394115995340E+02  2.39786600588565584E+01  7.09916139427180570E-01  1.45805088527846214E-02  2.21888453228930922E-04 -0.00000000000000000E+00
  426.000000  2.42512819416791281E+04  1.83431952838828183E+04  5.41043798453833915E+03  4.73687528219658134E+02  2.32646319647608948E+01  6.82415717647106623E-01  1.38879750869372372E-02  2.09380814762005210E-04 -0.00000000000000000E+00
  428.000000  2.41808566966288672E+04  1.83417817558789029E+04  5.35175241314441701E+03  4.64072355986869354E+02  2.25804362218406283E+01  6.56301834951407259E-01  1.32358563035763870E-02  1.97705582027288024E-04 -0.00000000000000000E+00
  430.000000  2.41117651933256020E+04  1.83399898313800804E+04  5.29440710205363848E+03  4.54798642513985442E+02  2.19252961469989067E+01  6.31512594322253706E-01  1.26218306776997528E-02  1.86805900723127036E-04 -0.00000000000000000E+00
  432.000000  2.40445303900126746E+04  1.83382203616078114E+04  5.23852552116599691E+03  4.45865858316413153E+02  2.12984401535832681E+01  6.07988437182428565E-01  1.20437029365548579E-02  1.76628751577617216E-04 -0.00000000000000000E+00
  434.000000  2.39796955901210131E+04  1.83368959535350259E+04  5.18422998816286781E+03  4.37273206559419805E+02  2.06991032353615800E+01  5.85672105142416410E-01  1.14993984832045936E-02  1.67124705980217802E-04 -0.00000000000000000E+00
  436.000000  2.39178238868595326E+04  1.83364605008854523E+04  5.13164155091660814E+03  4.29019652789492056E+02  2.01265284639554380E+01  5.64508598661830896E-01  1.09869576687114563E-02  1.58247694726388862E-04 -0.00000000000000000E+00
  438.000000  2.38594977220023320E+04  1.83373787667970319E+04  5.08087993098003790E+03  4.21103956159472887E+02  1.95799684489773504E+01  5.44445131818677153E-01  1.05045302012415753E-02  1.49954789154589001E-04 -0.00000000000000000E+00
  440.000000  2.38053185567944383E+04  1.83401360223934789E+04  5.03206352280884403E+03  4.13524701217519066E+02  1.90586867163107243E+01  5.25431082603999733E-01  1.00503696842383240E-02  1.42205994037776772E-04 -0.00000000000000000E+00
  442.000000  2.37559066515419836E+04  1.83452377442903853E+04  4.98530944315585475E+03  4.06280329399695290E+02  1.85619589653856814E+01  5.07417938331826024E-01  9.62282827829109670E-03  1.34964051641631107E-04 -0.00000000000000000E+00
  444.000000  2.37119009489432974E+04  1.83532093727050778E+04  4.94073362486170117E+03  3.99369169424102779E+02  1.80890741707990230E+01  4.90359235878472632E-01  9.22035148276213225E-03  1.28194256397515103E-04 -0.00000000000000000E+00
  446.000000  2.36739590544480452E+04  1.83645961302822834E+04  4.89845094900699496E+03  3.92789465827764559E+02  1.76393354971388945E+01  4.74210496545357352E-01  8.84147303374015897E-03  1.21864279662832237E-04 -0.00000000000000000E+00
  448.000000  2.36427573047751903E+04  1.83799628999166671E+04  4.85857540903815425E+03  3.86539404912733573E+02  1.72120609983367849E+01  4.58929155379441844E-01  8.48480991474380615E-03  1.15944004057060487E-04 -0.00000000000000000E+00
  450.000000  2.36189909130030828E+04  1.83998941576331599E+04  4.82122029997639947E+03  3.80617137371672356E+02  1.68065840742157384E+01  4.44474484790067459E-01  8.14905747584927960E-03  1.10405366866802343E-04 -0.00000000000000000E+00
  452.000000  2.36033741752540227E+04  1.84249939539088773E+04  4.78649842512552823E+03  3.75020796843342623E+02  1.64222536571360855E+01  4.30807512273914062E-01  7.83298465581190248E-03  1.05222212020292331E-04 -0.00000000000000000E+00
  454.000000  2.35966407197209337E+04  1.84558859335406778E+04  4.75452231174632925E+03  3.69748513601762170E+02  1.60584341007140310E+01  4.17890932005610560E-01  7.53542930032879629E-03  1.00370150133548703E-04 -0.00000000000000000E+00
  456.000000  2.35995437734695479E+04  1.84932133801793716E+04  4.72540442591252395E+03  3.64798422507148075E+02  1.57145047405294456E+01  4.05689009974914860E-01  7.25529356807383050E-03  9.58264261330622275E-05 -0.00000000000000000E+00
  458.000000  2.36128564158779409E+04  1.85376392668138906E+04  4.69925737513927561E+03  3.60168664239732720E+02  1.53898590935745005E+01  3.94167482257280599E-01  6.99153941452538945E-03  9.15697939653258074E-05 -0.00000000000000000E+00
  460.000000  2.36373717795177981E+04  1.85898462876424346E+04  4.67619408530913188E+03  3.55857378696819751E+02  1.50839036589729378E+01  3.83293445898572338E-01  6.74318414218257490E-03  8.75803979123155495E-05 -0.00000000000000000E+00
  462.000000  2.36739031494826340E+04  1.86505368397381899E+04  4.65632793583218609E+03  3.51862689257470549E+02  1.47960562773386588E+01  3.73035241784231142E-01  6.50929600452746643E-03  8.38396600443078058E-05 -0.00000000000000000E+00
  464.000000  2.37232839003570916E+04  1.87204329145227566E+04  4.63977283377841377E+03  3.48182676406933354E+02  1.45257440002053713E+01  3.63362328756805575E-01  6.28898985034939684E-03  8.03301733666291021E-05 -0.00000000000000000E+00
