# Wavelength | Total | n= 1 | ...
  300.000000  8.73921577480031738E+03  5.90671168715646036E+03  2.49148332902519633E+03  3.14629463581257880E+02  2.53428324980546762E+01  1.01725208248290366E+00  3.04989359135734057E-02  7.00141209757651072E-04  1.13797395490628997E-05
  302.000000  8.64725882277434721E+03  5.88725094179836105E+03  2.43397814606224301E+03  3.01088560241237133E+02  2.39665201432170534E+01  9.45926630228770216E-01  2.80822904744411628E-02  6.35452298948823162E-04  1.01562864882574868E-05
  304.000000  8.55523455147664572E+03  5.86636663411413156E+03  2.37711904314641515E+03  2.88176665514606611E+02  2.26658362900811419E+01  8.79916684444212893E-01  2.58695367559979364E-02  5.77119504118126978E-04  9.07070561185352244E-06
  306.000000  8.46343015479825044E+03  5.84425912129505559E+03  2.32101456192437763E+03  2.75875807395346897E+02  2.14374497027231676E+01  8.18838720313240231E-01  2.38431578132563410E-02  5.24495597945203698E-04  8.10702313753292774E-06
  308.000000  8.37212867103237477E+03  5.82113290068404422E+03  2.26576575316299795E+03  2.64167117340366815E+02  2.02780946904936563E+01  7.62333759841683611E-01  2.19871425153848714E-02  4.77000965451608735E-04  7.25114919892532661E-06
  310.000000  8.28160689778579217E+03  5.79719489623172467E+03  2.21146564023221299E+03  2.53030996067115979E+02  1.91845716999835041E+01  7.10066095239866191E-01  2.02868525384848897E-02  4.34116325091769926E-04  6.49065120838075782E-06
  312.000000  8.19213329721471928E+03  5.77265265893719152E+03  2.15819876548123693E+03  2.42447271830573499E+02  1.81537488065463961E+01  6.61722066181218760E-01  1.87289021754481651E-02  3.95376258200184124E-04  5.81455536012724812E-06
  314.000000  8.10396591283550060E+03  5.74771250225014501E+03  2.10604082158253186E+03  2.32395349590031884E+02  1.71825639018902088E+01  6.17008884729191576E-01  1.73010495436120917E-02  3.60363456087015423E-04  5.21317260610090985E-06
  316.000000  8.01735032137480175E+03  5.72257759595939297E+03  2.05505836914314159E+03  2.22854349907293084E+02  1.62680273818060037E+01  5.75653503670978339E-01  1.59920979472008735E-02  3.28703603909965235E-04  4.67794594604293032E-06
  318.000000  7.93251764500632453E+03  5.69744604428521325E+03  2.00530864114649285E+03  2.13803236829337010E+02  1.54072251512666298E+01  5.37401525562217541E-01  1.47918063076471745E-02  3.00060829324126351E-04  4.20131630549311725E-06
  320.000000  7.84968265068258825E+03  5.67250897558572342E+03  1.95683943406131880E+03  2.05220934385121609E+02  1.45973217814718890E+01  5.02016150984451182E-01  1.36908077113770243E-02  2.74133651887444496E-04  3.77660464702042959E-06
  322.000000  7.76904196397918986E+03  5.64794867217666342E+03  1.90968908472159683E+03  1.97086431657430126E+02  1.38355636735917411E+01  4.69277165379941075E-01  1.26805352432815908E-02  2.50651376368454858E-04  3.39790827644504684E-06
  324.000000  7.69077242482574547E+03  5.62393676916732602E+03  1.86388653133350317E+03  1.89378876669607024E+02  1.31192821056490985E+01  4.38979964395972921E-01  1.17531543763335373E-02  2.29370879519288109E-04  3.06000957709126213E-06
  326.000000  7.61502961163514647E+03  5.60063255087471771E+03  1.81945145619823688E+03  1.82077659549852768E+02  1.24458960610311120E+01  4.10934617989590467E-01  1.09015012754250379E-02  2.10073745632336791E-04  2.75829563736752090E-06
  328.000000  7.54194655870192128E+03  5.57818137231431956E+03  1.77639450697290954E+03  1.75162485603536027E+02  1.18129147586441494E+01  3.84964973664666810E-01  1.01190264485187063E-02  1.92563711311537103E-04  2.48868743579883279E-06
  330.000000  7.47163268931381026E+03  5.55671323146962823E+03  1.73471759252711172E+03  1.68613439037787828E+02  1.12179398248978686E+01  3.60907799179939148E-01  9.39974324210995048E-03  1.76664384466927927E-04  2.24757741963628672E-06
  332.000000  7.40417298394412228E+03  5.53634151561189719E+03  1.69441424872310517E+03  1.62411038148406931E+02  1.06586670660731038E+01  3.38611964925845832E-01  8.73818073276196559E-03  1.62217206589272797E-04  2.03177446089623949E-06
  334.000000  7.33962739925771803E+03  5.51716194194784657E+03  1.65547006876725709E+03  1.56536282802147070E+02  1.01328878158113955E+01  3.17937665955791593E-01  8.12934061344569754E-03  1.49079630963743100E-04  1.83845530054240995E-06
  336.000000  7.27803054959914334E+03  5.49925170942050499E+03  1.61786319216808010E+03  1.50970695034540114E+02  9.63848984628371319E+00  2.98755683406744410E-01  7.56865771395958710E-03  1.37123492669034700E-04  1.66512170316618321E-06
  338.000000  7.21939165830427282E+03  5.48266887471343489E+03  1.58156484581386917E+03  1.45696353542196931E+02  9.17345784304866640E+00  2.80946684780642497E-01  7.05196383001702610E-03  1.26233549024872964E-04  1.50956263961127066E-06
  340.000000  7.16369478169791910E+03  5.46745196151188702E+03  1.54653993025492105E+03  1.40695922785513545E+02  8.73587345273669058E+00  2.64400562302121223E-01  6.57545456658949808E-03  1.16306171639255171E-04  1.36982089922584577E-06
  342.000000  7.11089930415618346E+03  5.45361980798562581E+03  1.51274764395130683E+03  1.35952677339970393E+02  8.32391491968025754E+00  2.49015808333215460E-01  6.13565892854026334E-03  1.07248173405158980E-04  1.24416360570450874E-06
  344.000000  7.06094069822715392E+03  5.44117165337689767E+03  1.48014213802509380E+03  1.31450522047654658E+02  7.93585633265674772E+00  2.34698926622667059E-01  5.72941141620220487E-03  9.89757557303308337E-05  1.13105617463290779E-06
  346.000000  7.01373153961491334E+03  5.43008746059953774E+03  1.44867319393133198E+03  1.27174008430653998E+02  7.57006650628021305E+00  2.21363878001162334E-01  5.35382640564375286E-03  9.14135629905310666E-05  1.02913930622000610E-06
  348.000000  6.96916276291979284E+03  5.42032846796375270E+03  1.41828691642850276E+03  1.23108347739320052E+02  7.22500752355456211E+00  2.08931559007386081E-01  5.00627461354960935E-03  8.44938327002461913E-05  9.37208655689440089E-07
  350.000000  6.92710514044321917E+03  5.41183795959439158E+03  1.38892643427419284E+03  1.19239420924552661E+02  6.89923296694643984E+00  1.97329311843144256E-01  4.68436146499322421E-03  7.81556312164864280E-05  8.54196866635551451E-07
  352.000000  6.88741096317054689E+03  5.40454224087351304E+03  1.36053260118949015E+03  1.15553785747666225E+02  6.59138586534969662E+00  1.86490464007224882E-01  4.38590719923418176E-03  7.23441659618611130E-05  7.79157690197392169E-07
  354.000000  6.84991589954403844E+03  5.39835180233632855E+03  1.33304468981348714E+03  1.12038681175826824E+02  6.30019638372095514E+00  1.76353895944559025E-01  4.10892856416719861E-03  6.70101661729490959E-05  0.00000000000000000E+00
  356.000000  6.81444101035128097E+03  5.39316265293955985E+03  1.30640107160650382E+03  1.08682029157631803E+02  6.02447928123039755E+00  1.66863635065711197E-01  3.85162196429210402E-03  6.21093250942157866E-05  0.00000000000000000E+00
  358.000000  6.78079488087160735E+03  5.38885780150343544E+03  1.28053987594875662E+03  1.05472433832484128E+02  5.76313116265682002E+00  1.57968474537229037E-01  3.61234794017385600E-03  5.76017973278779494E-05  0.00000000000000000E+00
  360.000000  6.74877585590161380E+03  5.38530886344638839E+03  1.25539962202489232E+03  1.02399178199754331E+02  5.51512754665165250E+00  1.49621615311876927E-01  3.38961686939263668E-03  5.34517457574500905E-05  0.00000000000000000E+00
  362.000000  6.71817433622948101E+03  5.38237776868151559E+03  1.23091981748305716E+03  9.94522182587281804E+01  5.27951977350401336E+00  1.41780329953945600E-01  3.18207578997057629E-03  4.96269330830253778E-05  0.00000000000000000E+00
  364.000000  6.68877511071825211E+03  5.37991854575644447E+03  1.20704151831838567E+03  9.66221746276334699E+01  5.05543177426169432E+00  1.34405646914562221E-01  2.98849625728635042E-03  4.60983535492407579E-05  0.00000000000000000E+00
  366.000000  6.66035969296609801E+03  5.37777915697377011E+03  1.18370784495476050E+03  9.39003216579720714E+01  4.84205672252154518E+00  1.27462054020043097E-01  2.80776315455380293E-03  4.28399009332090862E-05  0.00000000000000000E+00
  368.000000  6.63270863302170619E+03  5.37580335934704635E+03  1.16086445009438967E+03  9.12785740778402328E+01  4.63865358992636168E+00  1.20917220048914448E-01  2.63886438510676754E-03  3.98280692793870627E-05  0.00000000000000000E+00
  370.000000  6.60560377588453775E+03  5.37383256680725754E+03  1.13845993457163559E+03  8.87494712228351545E+01  4.44454362635951128E+00  1.14741733385779393E-01  2.48088138199308809E-03  3.70416832441427678E-05  0.00000000000000000E+00
  372.000000  6.57883044027247433E+03  5.37170769005928832E+03  1.11644620818481258E+03  8.63061589435289562E+01  4.25910678596329095E+00  1.08908856849511654E-01  2.33298037681434504E-03  3.44616552399769151E-05  0.00000000000000000E+00
  374.000000  6.55217949335634967E+03  5.36927093186950333E+03  1.09477879328125232E+03  8.39423693122034251E+01  4.08177812035188392E+00  1.03394297895212567E-01  2.19440437534707379E-03  3.20707668560545579E-05  0.00000000000000000E+00
  376.000000  6.52544929980227789E+03  5.36636751731416462E+03  1.07341706972814177E+03  8.16523982865590341E+01  3.91204416066718030E+00  9.81759934822760832E-02  2.06446579232990538E-03  2.98534722875047525E-05  0.00000000000000000E+00
  378.000000  6.49844752645094741E+03  5.36284734057729838E+03  1.05232446079665760E+03  7.94310815222483626E+01  3.74943931033827571E+00  9.32339089817376815E-02  1.94253970191231437E-03  2.77957217249587415E-05  0.00000000000000000E+00
  380.000000  6.47099278723102088E+03  5.35856651220862568E+03  1.03146856040130092E+03  7.72737685575919500E+01  3.59354227047150143E+00  8.85498505638908778E-02  1.82805766372410358E-03  2.58848028523450521E-05  0.00000000000000000E+00
  382.000000  6.44291611637058213E+03  5.35338879328044550E+03  1.01082120304746127E+03  7.51762956211854743E+01  3.44397251964330398E+00  8.41072905609623611E-02  1.72050208739483838E-03  2.41091987714949360E-05  0.00000000000000000E+00
  384.000000  6.41406226152780891E+03  5.34718690553869783E+03  9.90358478719922005E+02  7.31349573348691280E+01  3.30038686941831205E+00  7.98912053392999977E-02  1.61940110069074472E-03  2.24584608237055235E-05  0.00000000000000000E+00
  386.000000  6.38429079203506444E+03  5.33984370937693984E+03  9.70060695769760059E+02  7.11464776000031094E+01  3.16247611613636170E+00  7.58879252415934208E-02  1.52432388835086374E-03  2.09230949111173661E-05  0.00000000000000000E+00
  388.000000  6.35347702092639884E+03  5.33125324418861237E+03  9.49912295598857213E+02  6.92079799634572055E+01  3.02996180836949947E+00  7.20849961730723743E-02  1.43487647024086997E-03  1.94944600396719621E-05  0.00000000000000000E+00
  390.000000  6.32151274272711998E+03  5.32132162832341328E+03  9.29901723579615918E+02  6.73169577611671457E+01  2.90259314794826073E+00  6.84710524080619082E-02  1.35069788871060303E-03  1.81646779129675059E-05  0.00000000000000000E+00
  392.000000  6.28830679203349155E+03  5.30996781841586471E+03  9.10021261161938355E+02  6.54712443315668366E+01  2.78014404060762876E+00  6.50357001865255052E-02  1.27145677611441060E-03  1.69265524985908708E-05  0.00000000000000000E+00
  394.000000  6.25378543063863162E+03  5.29712423021851464E+03  8.90266824497377797E+02  6.36689835791633243E+01  2.66241031014629126E+00  6.17694116563177534E-02  1.19684827436484500E-03  1.57734985804592665E-05  0.00000000000000000E+00
  396.000000  6.21789257332606303E+03  5.28273722522258504E+03  8.70637735145674355E+02  6.19086011507608376E+01  2.54920708758617520E+00  5.86634286983135148E-02  1.12659127928707798E-03  1.46994783855715663E-05  0.00000000000000000E+00
  398.000000  6.18058986440578065E+03  5.26676746923760311E+03  8.51136468518791617E+02  6.01887764640853007E+01  2.44036638422103858E+00  5.57096761503029433E-02  1.06042598338841219E-03  1.36989454512068125E-05  0.00000000000000000E+00
  400.000000  6.14185661860863729E+03  5.24919017071966300E+03  8.31768385669866348E+02  5.85084158019607870E+01  2.33573485473668141E+00  5.29006839238411880E-02  9.98111691539675227E-04  1.27667949643770782E-05  0.00000000000000000E+00
  402.000000  6.10168964106573276E+03  5.22999520795752323E+03  8.12541453858034629E+02  5.68666266556406370E+01  2.23517175384017852E+00  5.02295174880303397E-02  9.39424885047935882E-04  1.18983198722433849E-05  0.00000000000000000E+00
  404.000000  6.06010294181856625E+03  5.20918715526475717E+03  7.93465961034130032E+02  5.52626934696794336E+01  2.13854708713999386E+00  4.76897161770003172E-02  8.84157510618008053E-04  1.10891721199956210E-05  0.00000000000000000E+00
  406.000000  6.01712736064033561E+03  5.18678521907446429E+03  7.74554229013190934E+02  5.36960549086784056E+01  2.04573995443707668E+00  4.52752387651984903E-02  8.32115471845200740E-04  1.03353284323279480E-05  0.00000000000000000E+00
  408.000000  5.97281011794544884E+03  5.16282309531316059E+03  7.55820329650607732E+02  5.21662827343838416E+01  1.95663708118735302E+00  4.29804157470676795E-02  7.83117302105554606E-04  9.63306010640892893E-06  0.00000000000000000E+00
  410.000000  5.92721430728372525E+03  5.13734875967770404E+03  7.37279807843681738E+02  5.06730623509377267E+01  1.87113153173981184E+00  4.07999077564156071E-02  7.36992999009286002E-04  8.97890633698482215E-06  0.00000000000000000E+00
  412.000000  5.88041834438240676E+03  5.11042420245917310E+03  7.18949414657876900E+02  4.92161750470651356E+01  1.78912159607306598E+00  3.87286695655220600E-02  6.93583001965210333E-04  8.36965064035210078E-06  0.00000000000000000E+00
  414.000000  5.83251538698768036E+03  5.08212511940090008E+03  7.00846853350456968E+02  4.77954819374263735E+01  1.71050984018582342E+00  3.67619191149771915E-02  6.52737295805459034E-04  7.80229998998273746E-06  0.00000000000000000E+00
  416.000000  5.78361273891534256E+03  5.05254056977441087E+03  6.82990540550472701E+02  4.64109095816679513E+01  1.63520230905754560E+00  3.48951110421189051E-02  6.14314624872908869E-04  7.27406631849521141E-06  0.00000000000000000E+00
  418.000000  5.73383125078429566E+03  5.02177261243006342E+03  6.65399384366610207E+02  4.50624372390862078E+01  1.56310787018416186E+00  3.31239141980367094E-02  5.78181803398687081E-04  6.78235007863692814E-06  0.00000000000000000E+00
  420.000000  5.68330472893018577E+03  4.98993593006951960E+03  6.48092580745525311E+02  4.37500856995294498E+01  1.49413768510624267E+00  3.14441926697068413E-02  5.44213109413589071E-04  6.32472559354747950E-06  0.00000000000000000E+00
  422.000000  5.63217936301505597E+03  4.95715745142276592E+03  6.31089429000446557E+02  4.24739076172452314E+01  1.42820479606502238E+00  2.98519898542248772E-02  5.12289750804072099E-04  5.89892795805718696E-06  0.00000000000000000E+00
  424.000000  5.58061318188507448E+03  4.92357598041275105E+03  6.14409167076319022E+02  4.12339792636898679E+01  1.36522381491645328E+00  2.83435151653043324E-02  4.82299393425406455E-04  5.50284128401839957E-06  0.00000000000000000E+00
  426.000000  5.52877554629896167E+03  4.88934184077214104E+03  5.98070826814256179E+02  4.00303936076746041E+01  1.30511070167294974E+00  2.69151329871467754E-02  4.54135742408873189E-04  5.13448810944201535E-06  0.00000000000000000E+00
  428.000000  5.47684668629012049E+03  4.85461654397382790E+03  5.82093109225555736E+02  3.88632546265265617E+01  1.24778262049513611E+00  2.55633535269339726E-02  4.27698168936888957E-04  4.79201981541943252E-06  0.00000000000000000E+00
  430.000000  5.42501729010747658E+03  4.81957248772943967E+03  5.66494279576498798E+02  3.77326727496261327E+01  1.19315786157470138E+00  2.42848252532643430E-02  4.02891375802132525E-04  4.47370791747139910E-06  0.00000000000000000E+00
  432.000000  5.37348815093725079E+03  4.78439269173307184E+03  5.51292081918757958E+02  3.66387613356407300E+01  1.14115581810474498E+00  2.30763286434722895E-02  3.79625096004763951E-04  4.17793611657418118E-06  0.00000000000000000E+00
  434.000000  5.32246987691061076E+03  4.74927057675999549E+03  5.36503672567779972E+02  3.55816340864443177E+01  1.09169700838123473E+00  2.19347709970744188E-02  3.57813819480717183E-04  3.90319301184529263E-06  0.00000000000000000E+00
  436.000000  5.27218266925554053E+03  4.71440979268196043E+03  5.22145571929041012E+02  3.45614033038368547E+01  1.04470313398824910E+00  2.08571821051341949E-02  3.37376543806239748E-04  3.64806539300897177E-06  0.00000000000000000E+00
  438.000000  5.22285617283509418E+03  4.68002410041864550E+03  5.08233633992818739E+02  3.35781788992998997E+01  1.00009716595639064E+00  1.98407105957028838E-02  3.18236545359100226E-04  3.41123204134430928E-06  0.00000000000000000E+00
  440.000000  5.17472940270818799E+03  4.64633731229477871E+03  4.94783032756460557E+02  3.26320680717986633E+01  9.57803451720347088E-01  1.88826208033915539E-02  3.00321167990326985E-04  3.19145798070628053E-06  0.00000000000000000E+00
  442.000000  5.12805074974356103E+03  4.61358329470859007E+03  4.81808264785332653E+02  3.17231755737706287E+01  9.17747836616101598E-01  1.79802900363279436E-02  2.83561626733551278E-04  2.98758912860560520E-06  0.00000000000000000E+00
  444.000000  5.08307806767493275E+03  4.58200603640842473E+03  4.69323167083936312E+02  3.08516044905352516E+01  8.79857794528862702E-01  1.71312061362530015E-02  2.67892824490930813E-04  2.79854730490799607E-06  0.00000000000000000E+00
  446.000000  5.04007884328561158E+03  4.55185978500319925E+03  4.57340949414358022E+02  3.00174574631864353E+01  8.44062563114788444E-01  1.63329652471872998E-02  2.53253179970439805E-04  2.62332556272160994E-06  0.00000000000000000E+00
  448.000000  4.99933045062416750E+03  4.52340925357286233E+03  4.45874240167034145E+02  2.92208382893349317E+01  8.10293279761484908E-01  1.55832697250309488E-02  2.39584465440273957E-04  2.46098381160039353E-06  0.00000000000000000E+00
  450.000000  4.96112048922883332E+03  4.49692989835121080E+03  4.34935144854534940E+02  2.84618538395421901E+01  7.78483115112183488E-01  1.48799261348358542E-02  2.26831653091458610E-04  2.31064470693495594E-06  0.00000000000000000E+00
  452.000000  4.92574720525112298E+03  4.47270826740095526E+03  4.24535316261243338E+02  2.77406162298192314E+01  7.48567401553483114E-01  1.42208432942910849E-02  2.14942768992828917E-04  2.17148978364877152E-06  0.00000000000000000E+00
  454.000000  4.89351999304854780E+03  4.45104241892513619E+03  4.14686035235184534E+02  2.70572451918380814E+01  7.20483754547749600E-01  1.36040303314057601E-02  2.03868753767245134E-04  2.04275581505065688E-06  0.00000000000000000E+00
  456.000000  4.86475997321407704E+03  4.43224240631508110E+03  4.05398301049741349E+02  2.64118705823851805E+01  6.94172185077504889E-01  1.30275947316227103E-02  1.93563329239161518E-04  1.92373137976704668E-06  0.00000000000000000E+00
  458.000000  4.83980064104784742E+03  4.41663082515044880E+03  3.96682930186823398E+02  2.58046349718394659E+01  6.69575201756698046E-01  1.24897403547229811E-02  1.83982870381075848E-04  1.81375362180016080E-06  0.00000000000000000E+00
  460.000000  4.81898857706885883E+03  4.40454341506331366E+03  3.88550662292453353E+02  2.52356962478500968E+01  6.46637901348494859E-01  1.19887654050296420E-02  1.75086281953571517E-04  1.71220519001336266E-06  0.00000000000000000E+00
  462.000000  4.80268420821163181E+03  4.39632970656442558E+03  3.81012271922280320E+02  2.47052301646857799E+01  6.25308046508939008E-01  1.15230603396686820E-02  1.66834879260716436E-04  1.61851134395722241E-06  0.00000000000000000E+00
  464.000000  4.79126260474197898E+03  4.39235369950375480E+03  3.74078684517898864E+02  2.42134327606710649E+01  6.05536129545294455E-01  1.10911056990169645E-02  1.59192272461262133E-04  1.53213721443965183E-06  0.00000000000000000E+00
