# Wavelength | Total | n= 1 | ...
  300.000000  5.03202841189194459E+01  3.17995750390405689E+01  1.73226786157557484E+01  7.50577227721977991E-01  4.70232803692143320E-01 -2.30716449244680634E-02  2.92985814599662628E-04 -8.88174770301339578E-07 -2.00063535030298856E-08
  302.000000  4.98629809253418017E+01  3.30731368448720531E+01  1.54929192766822936E+01  8.91874423684170026E-01  4.25466675035323594E-01 -2.06739099120173200E-02  2.58344996825465682E-04 -7.11569654704918951E-07 -1.84472015391981398E-08
  304.000000  4.94030302068959628E+01  3.42938098177603905E+01  1.37347654027807309E+01  1.00867411444148303E+00  3.84048380120593780E-01 -1.84943419164043041E-02  2.27412941526297001E-04 -5.62284396130600451E-07 -1.69479603871723655E-08
  306.000000  4.89430704711506337E+01  3.54573392152189371E+01  1.20524749333641630E+01  1.10373997146828762E+00  3.45834332791536359E-01 -1.65173703316882636E-02  1.99840599389833188E-04 -4.36434494381850653E-07 -1.55255057070211644E-08
  308.000000  4.84853292081725940E+01  3.65603322047493648E+01  1.04492560872648532E+01  1.17962345026311644E+00  3.10670347923779899E-01 -1.47278431910823522E-02  1.75306025069465484E-04 -3.30672689225151518E-07 -1.41898219669089634E-08
  310.000000  4.80317110569407077E+01  3.76003219037053782E+01  8.92728628772893984E+00  1.23866598852459298E+00  2.78394756014937128E-01 -1.31111367079012088E-02  1.53512737367764683E-04 -2.42116866744214331E-07 -1.29457405653273869E-08
  312.000000  4.75838821219681947E+01  3.85758080463462960E+01  7.48774806555146455E+00  1.28300403110008165E+00  2.48841210090164161E-01 -1.16532392084440061E-02  1.34188169062822047E-04 -1.68286104973154600E-07 -1.17943356408039170E-08
  314.000000  4.71433484769129123E+01  3.94862736065834810E+01  6.13088136204266121E+00  1.31457616446513015E+00  2.21841192833803519E-01 -1.03408134435166721E-02  1.17082210087178246E-04 -1.07044707630221801E-07 -1.07340254018766695E-08
  316.000000  4.67115271398584895E+01  4.03321777913230193E+01  4.85605066958493126E+00  1.33513178934537091E+00  1.97226230571521499E-01 -9.16124048886270831E-03  1.01965837674437929E-04 -5.65537353434824576E-08 -9.76142567882136777E-09
  318.000000  4.62898081483629014E+01  4.11149267929653845E+01  3.66182469779688091E+00  1.34624087887759813E+00  1.74829820872642760E-01 -8.10264787028068534E-03  8.86298220164706335E-05 -1.52293462871621898E-08 -8.87199923617372294E-09
  320.000000  4.58796067684988742E+01  4.18368244986304134E+01  2.54606575401007618E+00  1.34930446444487462E+00  1.54489081820610524E-01 -7.15392413392887307E-03  7.68834945401945509E-05  1.82928340452175275E-08 -8.06053989852069907E-09
  322.000000  4.54824053024288659E+01  4.25010059629634611E+01  1.50602577115016878E+00  1.34556556562892693E+00  1.36046133040927331E-01 -6.30472178802600914E-03  6.65535668189793511E-05  4.51881075638788973E-08 -7.32152553436274058E-09
  324.000000  4.50997843774217273E+01  4.31113568429651437E+01  5.38445882201585846E-01  1.33612033874427327E+00  1.19349221032915231E-01 -5.54545033190175299E-03  5.74829904545070961E-05  6.64686200311244465E-08 -6.64936875054651304E-09
  326.000000  4.47334439726389448E+01  4.36724221659138863E+01 -3.60343406768393493E-01  1.32192926370470820E+00  1.04253603903248948E-01 -4.86726093262635461E-03  4.95298512224209392E-05  8.30054888737173351E-08 -6.03858923999158039E-09
  328.000000  4.43852147446120497E+01  4.41893077697608874E+01 -1.19432409476653945E+00  1.30382822450956137E+00  9.06222129381912822E-02 -4.26202418759441017E-03  4.25662937357840400E-05  9.55477479713804131E-08 -5.48392720338216745E-09
  330.000000  4.40570604333294682E+01  4.46675775453724668E+01 -1.96769686477069605E+00  1.28253936736070395E+00  7.83261104358661253E-02 -3.72230230269885581E-03  3.64774756162753101E-05  1.04738628601854784E-07 -4.98041328260280269E-09
  332.000000  4.37510722621620474E+01  4.51131492574005435E+01 -2.68479335380792250E+00  1.25868164369547930E+00  6.72447646297504309E-02 -3.24131691428478606E-03  3.11605522768682329E-05  1.11129610305422642E-07 -4.52340707662443186E-09
  334.000000  4.34694562912524702E+01  4.55321912668500914E+01 -3.34999582528783080E+00  1.23278096521045621E+00  5.72661633786080149E-02 -2.81291367781378882E-03  2.65236949859437571E-05  1.15192599819764329E-07 -4.10861346521984183E-09
  336.000000  4.32145146550174317E+01  4.59310219656230885E+01 -3.96766508793948525E+00  1.20527991473246709E+00  4.82867884952826176E-02 -2.43152463813343152E-03  2.24851457673871192E-05  1.17330528958391431E-07 -3.73208370615992235E-09
  338.000000  4.29886215280000670E+01  4.63160132040499803E+01 -4.54207707734139454E+00  1.17654697153800569E+00  4.02114722265808355E-02 -2.09212928255449876E-03  1.89723130559317168E-05  1.17886607158612087E-07 -3.39020643363752430E-09
  340.000000  4.27941945370123378E+01  4.66934984834992974E+01 -5.07736814528944969E+00  1.14688522237956469E+00  3.29531565009485994E-02 -1.79021506262856157E-03  1.59209118813706079E-05  1.17152418391678090E-07 -3.07969227792346809E-09
  342.000000  4.26336621943571075E+01  4.70696862305565134E+01 -5.57748879972588796E+00  1.11654054058459962E+00  2.64325742665497965E-02 -1.52173805401900879E-03  1.32741518970468293E-05  1.15375016496376227E-07 -2.79755475400360668E-09
  344.000000  4.25094277847279045E+01  4.74505780909531154E+01 -6.04616540956150672E+00  1.08570922482565613E+00  2.05778706236092734E-02 -1.28308431087181037E-03  1.09819758364586854E-05  1.12763144579972282E-07 -2.54108925388594162E-09
  346.000000  4.24238300170478482E+01  4.78418918993943407E+01 -6.48686923393300852E+00  1.05454509677543884E+00  1.53241796395454377E-02 -1.07103236343129155E-03  9.00035013661306445E-06  1.09492682520503120E-07 -2.30785138855400292E-09
  348.000000  4.23791006652028130E+01  4.82489888040416588E+01 -6.90279204947069758E+00  1.02316606278860012E+00  1.06131708266709313E-02 -8.82717207759185166E-04  7.29060857774124044E-06  1.05711410425462523E-07 -2.09563549747155850E-09
  350.000000  4.23773193806208184E+01  4.86768039572940836E+01 -7.29682762537012941E+00  9.91660148917894890E-01  6.39257733641779291E-03 -7.15596047068633480E-04  5.81884890902200036E-06  1.01543163249787456E-07 -1.90245384317464674E-09
  352.000000  4.24203658707521924E+01  4.91297802221924229E+01 -7.67155832365686585E+00  9.60091021353073892E-01  2.61571608219766938E-03 -5.67415965209852081E-04  4.55538164786752401E-06  9.70914424035237111E-08 -1.72651680765134680E-09
  354.000000  4.25098697039777704E+01  4.96118044800239488E+01 -8.02924617148857855E+00  9.28503005698549710E-01 -7.58991716253057391E-04 -4.36183645790139823E-04  3.47422955573823609E-06  9.24425430175572055E-08 -1.56621425569636049E-09
  356.000000  4.26471581210619917E+01  5.01261463452588174E+01 -8.37182785203891555E+00  8.96925618742307917E-01 -3.76849262898877602E-03 -3.20137195110585960E-04  2.55267572875493185E-06  8.76682494146710057E-08 -1.42009815236950800E-09
  358.000000  4.28332024016577577E+01  5.06753993829732892E+01 -8.70091317937041708E+00  8.65377625908745229E-01 -6.44556017050208763E-03 -2.17720082436907800E-04  1.77085781683100765E-06  8.28281467555632415E-08 -1.28686645498545770E-09
  360.000000  4.30685635414475669E+01  5.12614252610075951E+01 -9.01778675067952662E+00  8.33870636677394028E-01 -8.81923659333633259E-03 -1.27557176383078646E-04  1.11140558620299970E-06  7.79715928694565107E-08 -1.16534826574235070E-09
  362.000000  4.33533382304790322E+01  5.18853016330108545E+01 -9.32341259629603769E+00  8.02412249273536049E-01 -1.09152538821888218E-02 -4.84328308646372364E-05  5.59118835810636897E-07  7.31393903378089048E-08 -1.05449021561483401E-09
  364.000000  4.36871063706716711E+01  5.25472749146569882E+01 -9.61844176512694915E+00  7.71008755314779859E-01 -1.27564313120893114E-02  2.07290445132998769E-05  1.00682588746290756E-07  6.83651958277748687E-08 -9.53344032239075245E-10
  366.000000  4.40688816144987427E+01  5.32467194589568393E+01 -9.90322288225575065E+00  7.39667415144875218E-01 -1.43630475867235763E-02  8.08830073753949094E-05 -2.75583529288575893E-07  6.36767005585273765E-08 -8.61055239769749122E-10
  368.000000  4.44970666280578868E+01  5.39821049326007838E+01 -1.01778157904132396E+01  7.08398315332592010E-01 -1.57531861212668461E-02  1.32878284037814438E-04 -5.79944776749664767E-07  5.90966127067893698E-08 -7.76852939210094345E-10
  370.000000  4.49694149625413502E+01  5.47509739183393762E+01 -1.04420084307631065E+01  6.77215821694586162E-01 -1.69430524702667701E-02  1.77473239935970438E-04 -8.21442591001321693E-07  5.46434698712710355E-08 -7.00040607761770467E-10
  372.000000  4.54830015381550581E+01  5.55499318958530637E+01 -1.06953371281837573E+01  6.46139643921723184E-01 -1.79472632895795389E-02  2.15348211800091976E-04 -1.00806051132339733E-06  5.03323068902621491E-08 -6.29987861579572407E-10
  374.000000  4.60342037866926432E+01  5.63746517647807508E+01 -1.09371104185456200E+01  6.15195531480089874E-01 -1.87791065600971391E-02  2.47116795836576026E-04 -1.14686739676281318E-06  4.61752016714866290E-08 -5.66123118486544285E-10
  376.000000  4.66186954472620059E+01  5.72198949524644362E+01 -1.11664364900729343E+01  5.84415624757575136E-01 -1.94507731078398319E-02  2.73335687408956130E-04 -1.24414043279116583E-06  4.21817192734158693E-08 -5.07927098089151086E-10
  378.000000  4.72314548513183965E+01  5.80795508857421723E+01 -1.13822542101642892E+01  5.53838489897964581E-01 -1.99735597599611028E-02  2.94513168408404562E-04 -1.30547025522479728E-06  3.83592719469518488E-08 -4.54927093208900943E-10
  380.000000  4.78667892611051045E+01  5.89466961972533667E+01 -1.15833675764724262E+01  5.23508870288257322E-01 -2.03580447602543096E-02  3.11116339781159759E-04 -1.33585034291791590E-06  3.47134106161480509E-08 -4.06691945799275208E-10
  382.000000  4.85183764370242514E+01  5.98136744873755006E+01 -1.17684832740285348E+01  4.93477191695544992E-01 -2.06142363489581967E-02  3.23577198144296566E-04 -1.33975265654847720E-06  3.12480612010973470E-08 -3.62827657366464031E-10
  384.000000  4.91793241100883662E+01  6.06721967879582493E+01 -1.19362508475751756E+01  4.63798861278332974E-01 -2.07516956812351175E-02  3.32297656789570925E-04 -1.32119133980795357E-06  2.79657170709469829E-08 -3.22973567008755831E-10
  386.000000  4.98422474365550841E+01  6.15134620959211205E+01 -1.20853048210972904E+01  4.34533402822828652E-01 -2.07796355091823398E-02  3.37653612932793537E-04 -1.28377613282667760E-06  2.48675972428358247E-08 -2.86799027097396971E-10
  388.000000  5.04993638345225548E+01  6.23282964974544456E+01 -1.22143079271438921E+01  4.05743471383847254E-01 -2.07069962787724826E-02  3.39998164102380332E-04 -1.23075699554741801E-06  2.19537782376133762E-08 -2.54000511974531768E-10
  390.000000  5.11426038720909730E+01  6.31073085258097279E+01 -1.23219944600834097E+01  3.77493789845285088E-01 -2.05425014950999830E-02  3.39664076772780345E-04 -1.16506129464570302E-06  1.92233059972168063E-08 -2.24299098250307257E-10
  392.000000  5.17637361292687288E+01  6.38410575343043547E+01 -1.24072126514231655E+01  3.49850047988642832E-01 -2.02946943632102625E-02  3.36965610027737035E-04 -1.08932476088363739E-06  1.66742931289565824E-08 -1.97438257232810928E-10
  394.000000  5.23545032278755613E+01  6.45202310704067798E+01 -1.24689648940065911E+01  3.22877801305949841E-01 -1.99719578391558475E-02  3.32199795031807243E-04 -1.00591729729511002E-06  1.43040054945342423E-08 -1.73181910295734434E-10
  396.000000  5.29067655576503029E+01  6.51358265555375056E+01 -1.25064446223599095E+01  2.96641402512056063E-01 -1.95825203005192197E-02  3.25647268120452470E-04 -9.16964588865802079E-07  1.21089413215045541E-08 -1.51312700354379581E-10
  398.000000  5.34126486630433277E+01  6.56793320549811881E+01 -1.25190686948099561E+01  2.71202993617143007E-01 -1.91344490827553559E-02  3.17572750793581075E-04 -8.24366347479688416E-07  1.00849051802104022E-08 -1.31630442517714120E-10
  400.000000  5.38646898321934344E+01  6.61429006021905792E+01 -1.25065042203428245E+01  2.46621580902349313E-01 -1.86356341219232509E-02  3.08225264033622410E-04 -7.29811913631982822E-07  8.22707855514035431E-09 -1.13950721777258867E-10
  402.000000  5.42559791801079285E+01  6.65195124514482785E+01 -1.24686889267520389E+01  2.22952209516077027E-01 -1.80937638997952233E-02  2.97838157243467193E-04 -6.34793832970450636E-07  6.53008818427080122E-09 -9.81036138129801840E-11
  404.000000  5.45802904653670282E+01  6.68031197888487753E+01 -1.24058443699696728E+01  2.00245248986296032E-01 -1.75162958064919994E-02  2.86629023939309678E-04 -5.40619928453633402E-07  4.98807294878327753E-09 -8.39325097419296552E-11
  406.000000  5.48321970373485073E+01  6.69887688372026133E+01 -1.23184815275417456E+01  1.78545795945840635E-01 -1.69104229246516760E-02  2.74799567240504292E-04 -4.48424300395805230E-07  3.59474973395784339E-09 -7.12930319628790413E-11
  408.000000  5.50071686796864867E+01  6.70726949330022961E+01 -1.22073985888177425E+01  1.57893196024603999E-01 -1.62830390971992721E-02  2.62535468707986966E-04 -3.59177603665690874E-07  2.34347844714915943E-09 -6.00520311535932532E-11
  410.000000  5.51016456832678614E+01  6.70523870065590728E+01 -1.20736710363373749E+01  1.38320683239328501E-01 -1.56407039776979007E-02  2.50006304167279625E-04 -2.73696878441543373E-07  1.22732615493168943E-09 -5.00866597505743259E-11
  412.000000  5.51130872240611183E+01  6.69266189196310535E+01 -1.19186343914760524E+01  1.19855132399486086E-01 -1.49896095765135896E-02  2.37365540419634405E-04 -1.92655142777934527E-07  2.39130167265926862E-10 -4.12835169699774729E-11
  414.000000  5.50399920020268212E+01  6.66954462582068430E+01 -1.17438602579137612E+01  1.02516917965669252E-01 -1.43355496163078619E-02  2.24750637248333706E-04 -1.16590896858496567E-07 -6.28440228982776238E-10 -3.35378641575040317E-11
  416.000000  5.48818900728844739E+01  6.63601683836482437E+01 -1.15511265253714335E+01  8.63198714610149131E-02 -1.36838927964725698E-02  2.12283270292953127E-04 -4.59176356113989435E-08 -1.38282375082697128E-09 -2.67529084464389504E-11
  418.000000  5.46393058240045235E+01  6.59232567518355381E+01 -1.13423827824267800E+01  7.12713287456641365E-02 -1.30395608464086380E-02  2.00069682270303877E-04  1.90665781258234082E-08 -2.03150923122053956E-09 -2.08391526008831813E-11
  420.000000  5.43136930575155645E+01  6.53882516574876576E+01 -1.11197121228372406E+01  5.73722581554853284E-02 -1.24070120250024882E-02  1.88201162909678785E-04  7.81694658513608979E-08 -2.58198030794150454E-09 -1.57138097658158423E-11
  422.000000  5.39073440953014398E+01  6.47596305923016615E+01 -1.08852906099333158E+01  4.46174605416735093E-02 -1.17902305023934104E-02  1.76754651929853575E-04  1.31294828420300922E-07 -3.04166313007811201E-09 -1.13002794206010257E-11
  424.000000  5.34232756664148241E+01  6.40426522744382680E+01 -1.06413456871363294E+01  3.29958324964153560E-02 -1.11927218455384284E-02  1.65793454544464964E-04  1.78432826808125890E-07 -3.41787749956661052E-09 -7.52768147936115361E-12
  426.000000  5.28650950363223160E+01  6.32431810741192351E+01 -1.03901147915343284E+01  2.24906843841237991E-02 -1.06175146300242131E-02  1.55368055117333759E-04  2.19650308583521782E-07 -3.71779184969687926E-09 -4.33044358153625308E-12
  428.000000  5.22368503618119746E+01  6.23674970029754974E+01 -1.01338053464935172E+01  1.30801052004677343E-02 -1.00671680137874933E-02  1.45517012058849426E-04  2.55081254612868017E-07 -3.94838239760454068E-09 -1.64793654135110450E-12
  430.000000  5.15428695849143423E+01  6.14220966404117945E+01 -9.87455718591057874E+00  4.73736664117299644E-03 -9.54378494508582344E-03  1.36267915410230475E-04  2.84917427849059285E-07 -4.11639674337450350E-09  5.75847703531974075E-13
  432.000000  5.07875923081537763E+01  6.04134903421289664E+01 -9.61440830604312779E+00 -2.56864095454237273E-03 -9.04903053873802599E-03  1.27638387893239515E-04  3.09399308191912237E-07 -4.22832213812503069E-09  2.39258158332107425E-12
  434.000000  4.99753990265440393E+01  5.93480008284115002E+01 -9.35526466057832451E+00 -8.87294787896350523E-03 -8.58415504137952437E-03  1.19637110367429219E-04  3.28807396724803838E-07 -4.29035855197853828E-09  3.84985692053106522E-12
  436.000000  4.91104418434748169E+01  5.82315678078959706E+01 -9.09887452121938090E+00 -1.42140264835232677E-02 -8.15002072228584833E-03  1.12264853469703487E-04  3.43453967456511754E-07 -4.30839660574460090E-09  4.99141491674039040E-12
  438.000000  4.81964803929163423E+01  5.70695626909893008E+01 -8.84680772942698113E+00 -1.86333015683386172E-02 -7.74713196943493249E-03  1.05515498614682158E-04  3.53675337792415734E-07 -4.28800033568265274E-09  5.85735702742208974E-12
  440.000000  4.72367261585020799E+01  5.58666167245168737E+01 -8.60043997430752682E+00 -2.21746564914682420E-02 -7.37566784578154357E-03  9.93770331742180595E-05  3.59824716080185866E-07 -4.23439473212434010E-09  6.48434085467530550E-12
  442.000000  4.62336977571015382E+01  5.46264650784886783E+01 -8.36094205406117297E+00 -2.48839416009948577E-02 -7.03551635199770042E-03  9.38325069098065213E-05  3.62265677794674680E-07 -4.15245785507468366E-09  6.90576559734883792E-12
  444.000000  4.51890890760554953E+01  5.33518085803091253E+01 -8.12927392128769810E+00 -2.68084915625499826E-02 -6.72630966881353209E-03  8.88609386845810596E-05  3.61366304512872731E-07 -4.04671733766526783E-09  7.15195041682431795E-12
  446.000000  4.41036514568453129E+01  5.20441939617692384E+01 -7.90618317901226142E+00 -2.79966579684764183E-02 -6.44745968797153825E-03  8.44381648713459800E-05  3.57494010438283058E-07 -3.92135099197147950E-09  7.25030830317154725E-12
  448.000000  4.29770904375874494E+01  5.07039126975711696E+01 -7.69220758817375305E+00 -2.84973634715685181E-02 -6.19819319946939874E-03  8.05376229593059850E-05  3.51011066717913382E-07 -3.78019121857943477E-09  7.22551734326723709E-12
  450.000000  4.18079769338008589E+01  4.93299178029891010E+01 -7.48768106927623656E+00 -2.83596834602241610E-02 -5.97758616901685261E-03  7.71310660096482587E-05  3.42270823566089934E-07 -3.62673286178856618E-09  7.09969085693379392E-12
  452.000000  4.05936721782545504E+01  4.79197573494614204E+01 -7.29274263085489682E+00 -2.76324610974730267E-02 -5.78459661729402962E-03  7.41892054324480208E-05  3.31614617503199731E-07 -3.46414416635839914E-09  6.89254686897309013E-12
  454.000000  3.93302652786561993E+01  4.64695229710205950E+01 -7.10734763371919520E+00 -2.63639613160031039E-02 -5.61809569120698057E-03  7.16822813168031407E-05  3.19369343012120121E-07 -3.29528045595652755E-09  6.62157730860858960E-12
  456.000000  3.80125219043822398E+01  4.49738112871738451E+01 -6.93128080029107174E+00 -2.46015691939556191E-02 -5.47689659687843750E-03  6.95805610172601488E-05  3.05845659758613433E-07 -3.12270015778129549E-09  6.30221664476259151E-12
  458.000000  3.66338423940114097E+01  4.34256959701732939E+01 -6.76417040010650972E+00 -2.23915380749241943E-02 -5.35978114237958565E-03  6.78547678817758020E-05  2.91336798990141961E-07 -2.94868282553641367E-09  5.94800951656383691E-12
  460.000000  3.51862274960405017E+01  4.18167081446112832E+01 -6.60550308182030044E+00 -1.97787928354941772E-02 -5.26552370633805861E-03  6.64764430892803189E-05  2.76117929974190293E-07 -2.77524880090516589E-09  5.57077661686304036E-12
  462.000000  3.36602500248050376E+01  4.01368229313818290E+01 -6.45463887616486698E+00 -1.68067939912608100E-02 -5.19291251197405782E-03  6.54182442573900466E-05  2.60446042494521256E-07 -2.60418020068739004E-09  5.18077818141020164E-12
  464.000000  3.20450309429746056E+01  3.83744502435236683E+01 -6.31082595985235528E+00 -1.35174688748787436E-02 -5.14076813495337702E-03  6.46541850770960316E-05  2.44560300954282820E-07 -2.43704293201124594E-09  4.78687406386981604E-12
