# Wavelength | Total | n= 1 | ...
  300.000000  1.31800974087151186E+01  1.03081790182349469E+01 -2.24412583108616470E+00  5.23330410780018251E+00 -1.21956898505464262E-01  4.88682723996993612E-03 -1.93452465180142877E-04  3.68243747488643510E-06 -4.49406461205734574E-08
  302.000000  1.55807377371630160E+01  1.45617232220055897E+01 -3.96457881449754623E+00  5.11033542026988297E+00 -1.31955415385408392E-01  5.40135501092860616E-03 -1.91529841994994928E-04  3.54130539172455712E-06 -4.17038249341439969E-08
  304.000000  1.79470268947348366E+01  1.86802989648745132E+01 -5.57419206081275131E+00  4.97529430719959009E+00 -1.39982911704522761E-01  5.79333272662396325E-03 -1.88082139715778937E-04  3.38312677702951094E-06 -3.85356732391230855E-08
  306.000000  2.02717565670462072E+01  2.26535459821478682E+01 -7.07252072830206657E+00  4.83107693407991157E+00 -1.46244624034665760E-01  6.07926182619830755E-03 -1.83437212124347925E-04  3.21402235534885046E-06 -3.54812708190936964E-08
  308.000000  2.25487627906795609E+01  2.64735965798534956E+01 -8.46024174946104424E+00  4.68024406436206508E+00 -1.50935350771418925E-01  6.27411540283715711E-03 -1.77875072109228257E-04  3.03893699002383758E-06 -3.25712575841128552E-08
  310.000000  2.47730321362209871E+01  3.01351010194291398E+01 -9.73908977067541315E+00  4.52503675974095554E+00 -1.54238461028466084E-01  6.39139008823840990E-03 -1.71633319195120071E-04  2.86181072293436882E-06 -2.98249988952073804E-08
  312.000000  2.69407790430345599E+01  3.36352038784403291E+01 -1.09117755647643335E+01  4.36739503592313127E+00 -1.56325226512419729E-01  6.44317360670454593E-03 -1.64912138032719446E-04  2.68573236329284740E-06 -2.72531835300122367E-08
  314.000000  2.90494941191707348E+01  3.69734741871334975E+01 -1.19818889705389395E+01  4.20897849733840790E+00 -1.57354427228700883E-01  6.44022311143728748E-03 -1.57878860789839874E-04  2.51307575631726155E-06 -2.48599329233939506E-08
  316.000000  3.10979639618385626E+01  4.01517936210140363E+01 -1.29537893223830736E+01  4.05118815153630418E+00 -1.57472189681597763E-01  6.39205048046168935E-03 -1.50672102489012418E-04  2.34561941671907905E-06 -2.26444956518415265E-08
  318.000000  3.30862637914700031E+01  4.31742082088404615E+01 -1.38324869201812710E+01  3.89518875497570072E+00 -1.56812022309381738E-01  6.30701158515634998E-03 -1.43405488643158176E-04  2.18465057488637221E-06 -2.06025946164209471E-08
  320.000000  3.50157248704497448E+01  4.60467498421838641E+01 -1.46235193624881319E+01  3.74193116973956341E+00 -1.55495017507836869E-01  6.19239719532443510E-03 -1.36171000447781008E-04  2.03105489966787013E-06 -1.87274868832652007E-08
  322.000000  3.68888792453167014E+01  4.87772343240119923E+01 -1.53328265544183697E+01  3.59217431869062276E+00 -1.53630193074625665E-01  6.05452369019093221E-03 -1.29041965593572046E-04  1.88539326284524073E-06 -1.70107883804411734E-08
  324.000000  3.87093847715334576E+01  5.13750427745198124E+01 -1.59666279515835079E+01  3.44650641821071124E+00 -1.51314948554960693E-01  5.89882214098247197E-03 -1.22075723407769803E-04  1.74796693005602629E-06 -1.54431080940866391E-08
  326.000000  4.04819336283909763E+01  5.38508929517252213E+01 -1.65313051684106647E+01  3.30536524562748113E+00 -1.48635614063231059E-01  5.72992464647221512E-03 -1.15315992300506564E-04  1.61887252609368899E-06 -1.40145293232393636E-08
  328.000000  4.22121476014871320E+01  5.62166064922211746E+01 -1.70332925220026681E+01  3.16905726480873362E+00 -1.45668070965021546E-01  5.55174705789768068E-03 -1.08794966055968527E-04  1.49804804671573596E-06 -1.27149692335962137E-08
  330.000000  4.39064633091120200E+01  5.84848772962329235E+01 -1.74789774579828823E+01  3.03777549024395199E+00 -1.42478425439080375E-01  5.36756744408836695E-03 -1.02535163626982345E-04  1.38531109450761764E-06 -1.15344423292303605E-08
  332.000000  4.55720102976073704E+01  6.06690453431845782E+01 -1.78746121645951845E+01  2.91161601792178759E+00 -1.39123717603357566E-01  5.18009982761803017E-03 -9.65510552316115115E-05  1.28039040806167521E-06 -1.04632486945583235E-08
  334.000000  4.72164845606443819E+01  6.27828792020102355E+01 -1.82262370685284125E+01  2.79059319187759947E+00 -1.35652650569066252E-01  4.99156288018033547E-03 -9.08504856902882528E-05  1.18295164480395801E-06 -9.49210380115929518E-09
  336.000000  4.88480195854197703E+01  6.48403694650658906E+01 -1.85396163542120256E+01  2.67465340864661760E+00 -1.32106325573212280E-01  4.80374340075471595E-03 -8.54359143051248808E-05  1.09261827001316090E-06 -8.61222331766371539E-09
  338.000000  5.04750565358739252E+01  6.68555343487698508E+01 -1.88201851808509097E+01  2.56368758891942639E+00 -1.28518971166940971E-01  4.61805451865345256E-03 -8.03054890809729163E-05  1.00898830310682824E-06 -7.81537359840067522E-09
  340.000000  5.21062146887450481E+01  6.88422378214234669E+01 -1.90730079021790218E+01  2.45754236657325276E+00 -1.24918656318439930E-01  4.43558866391098681E-03 -7.54539717968747396E-05  9.31647577676611195E-07 -7.09389630014589867E-09
  342.000000  5.37501627799511823E+01  7.08140198798157314E+01 -1.93027463271615822E+01  2.35603006078825672E+00 -1.21327979133719954E-01  4.25716543237964536E-03 -7.08735292446775262E-05  8.60180085959677749E-07 -6.44071375516327476E-09
  344.000000  5.54154915280903921E+01  7.27839380307960084E+01 -1.95136368937803404E+01  2.25893750729849785E+00 -1.17764724686467981E-01  4.08337454099480090E-03 -6.65544048932815546E-05  7.94175900467631205E-07 -5.84932029996981402E-09
  346.000000  5.71105873046536416E+01  7.47644186592723230E+01 -1.97094755548112097E+01  2.16603383074153566E+00 -1.14242487109473156E-01  3.91461412135965438E-03 -6.24854842243853970E-05  7.33237096335840326E-07 -5.31376360390639474E-09
  348.000000  5.88435067344129052E+01  7.67671167848690033E+01 -1.98936091819673528E+01  2.07707724207911681E+00 -1.10771252593204708E-01  3.75112463794809127E-03 -5.86547660165296107E-05  6.76982036402701478E-07 -4.82861913051329728E-09
  350.000000  6.06218519462458900E+01  7.88027827242147794E+01 -2.00689323700319378E+01  1.99182094365921514E+00 -1.07357941245527028E-01  3.59301874091339304E-03 -5.50497509168596931E-05  6.25048326466199328E-07 -4.38896014940819876E-09
  352.000000  6.24526462568655134E+01  8.08811343697825862E+01 -2.02378886493893333E+01  1.91001822059784532E+00 -1.04006906847786393E-01  3.44030737552516747E-03 -5.16577577032605777E-05  5.77094700862208910E-07 -3.99032513840639692E-09
  354.000000  6.43422102548093306E+01  8.30107341522318336E+01 -2.04024752797050262E+01  1.83142679122568164E+00 -1.00720394411181691E-01  3.29292247136049078E-03 -4.84661767188814105E-05  5.32802056825400732E-07 -3.62868397531692800E-09
  356.000000  6.62960385492000341E+01  8.51988702453378437E+01 -2.05642509846092594E+01  1.75581248213977514E+00 -9.74989560991108006E-02  3.15073652643809397E-03 -4.54626690697317666E-05  4.91873820078166328E-07 -3.30040396384508513E-09
  358.000000  6.83186778413651581E+01  8.74514421704558771E+01 -2.07243461833446148E+01  1.68295228569491440E+00 -9.43418265423748292E-02  3.01357938709045405E-03 -4.26353192991522572E-05  4.54035793144085010E-07 -3.00221645969623565E-09
  360.000000  7.04136074453481910E+01  8.97728516270473449E+01 -2.08834754689517155E+01  1.61263685006405177E+00 -9.12472588726945394E-02  2.88125250519194378E-03 -3.99727484112176660E-05  4.19035611334117479E-07 -2.73118464892015573E-09
  362.000000  7.25831238998646171E+01  9.21659000793843433E+01 -2.10419522623238535E+01  1.54467244488216426E+00 -8.82128229734432528E-02  2.75354093151631771E-03 -3.74641933432627315E-05  3.86641908734435970E-07 -2.48467285742197477E-09
  364.000000  7.48282318475704074E+01  9.46316953257623794E+01 -2.11997057282724732E+01  1.47888243949072606E+00 -8.52356675154560123E-02  2.63022328052961831E-03 -3.50995582514823849E-05  3.56643277299844024E-07 -2.26031764714613298E-09
  366.000000  7.71485438741867284E+01  9.71695699226312257E+01 -2.13563001646069210E+01  1.41510832628474925E+00 -8.23127473496493151E-02  2.51107987853365147E-03 -3.28694423046593153E-05  3.28847086557422695E-07 -2.05600084363226707E-09
  368.000000  7.95421924626849233E+01  9.97770148892083881E+01 -2.15109571627017040E+01  1.35321031865111552E+00 -7.94410178176530452E-02  2.39589928447968845E-03 -3.07651480962271569E-05  3.03078217546673716E-07 -1.86982456850580033E-09
  370.000000  8.20057575889503170E+01  1.02449632533584108E+02 -2.16625808811290739E+01  1.29306755184578881E+00 -7.66175975072663912E-02  2.28448335334161933E-03 -2.87786742444348587E-05  2.79177754101900599E-07 -1.70008828975489284E-09
  372.000000  8.45342137281956241E+01  1.05181112480661156E+02 -2.18097867707420221E+01  1.23457791550144647E+00 -7.38399009807184231E-02  2.17665099465713273E-03 -2.69026952947042656E-05  2.57001665141337019E-07 -1.54526785552530915E-09
  374.000000  8.71209001214365486E+01  1.07963235008609786E+02 -2.19509340375874196E+01  1.17765754819462254E+00 -7.11057430293143972E-02  2.07224076500242896E-03 -2.51305316374909832E-05  2.36419504329930446E-07 -1.40399645003045722E-09
  376.000000  8.97575180392409351E+01  1.10785905586059158E+02 -2.20841620304421511E+01  1.12224002734007722E+00 -6.84134160652017237E-02  1.97111242274993414E-03 -2.34561118036766416E-05  2.17313147459167811E-07 -1.27504737910150522E-09
  378.000000  9.24341584544519606E+01  1.13637224030478251E+02 -2.22074305966692513E+01  1.06827529095562657E+00 -6.57617423671879170E-02  1.87314756545836863E-03 -2.18739292064767561E-05  1.99575582816000154E-07 -1.15731858302575779E-09
  380.000000  9.51393629843230997E+01  1.16503590972638676E+02 -2.23185642691368571E+01  1.01572833131246631E+00 -6.31501030211104042E-02  1.77824946511625473E-03 -2.03789951379347031E-05  1.83109765855602986E-07 -1.04981875984250115E-09
  382.000000  9.78602201860323362E+01  1.19369853323873144E+02 -2.24152999381145897E+01  9.64577703516881879E-01 -6.05784455425381757E-02  1.68634221315842750E-03 -1.89667895969587407E-05  1.67827546194659613E-07 -9.51654977484615900E-10
  384.000000  1.00582498301994846E+02  1.22219489228147907E+02 -2.24953374369626502E+01  9.14813894269929206E-01 -5.80472723205244026E-02  1.59736928486778188E-03 -1.76332113268437386E-05  1.53648672180073887E-07 -8.62021650719686109E-10
  386.000000  1.03290814380559695E+02  1.25034831581890799E+02 -2.25563922430822892E+01  8.66437597088296929E-01 -5.55576121598140016E-02  1.51129163125651809E-03 -1.63745282478597573E-05  1.40499876130710360E-07 -7.80190760410292281E-10
  388.000000  1.05968838387797817E+02  1.27797327680861201E+02 -2.25962492813571636E+01  8.19457939923020184E-01 -5.31109773132188781E-02  1.42808540469257172E-03 -1.51873292978214569E-05  1.28314041482652062E-07 -7.05503194446956202E-10
  390.000000  1.08599529532388360E+02  1.30487830976430445E+02 -2.26128166321062452E+01  7.73890709209494099E-01 -5.07093084807020006E-02  1.34773942183832071E-03 -1.40684785309500795E-05  1.17029451465206142E-07 -6.37361096327626203E-10
  392.000000  1.11165400615990734E+02  1.33086919375072682E+02 -2.26041778033814253E+01  7.29756611174856351E-01 -4.83549102811050499E-02  1.27025246399288701E-03 -1.30150721594093613E-05  1.06589117769667873E-07 -5.75221115290219739E-10
  394.000000  1.13648804870283172E+02  1.35575233083172861E+02 -2.25686411423373023E+01  6.87079606612985061E-01 -4.60503796973702889E-02  1.19563050945188957E-03 -1.20243990765076786E-05  9.69401865518849980E-08 -5.18588455673443108E-10
  396.000000  1.16032238526713456E+02  1.37933823769873243E+02 -2.25047849407279799E+01  6.45885349852902246E-01 -4.37985299316259735E-02  1.12388398576442777E-03 -1.10939052497676216E-05  8.80334182303824390E-08 -4.67011637265808551E-10
  398.000000  1.18298651360580678E+02  1.40144505874489539E+02 -2.24114968417426113E+01  6.06199756472298734E-01 -4.16023120001807675E-02  1.05502512123533364E-03 -1.02211622372111117E-05  7.98227368670258842E-08 -4.20077882305760299E-10
  400.000000  1.20431756725100215E+02  1.42190200289972807E+02 -2.22880062800112135E+01  5.68047717874551994E-01 -3.94647362484690650E-02  9.89065465052467582E-04 -9.40383994974589683E-06  7.22648443802985453E-08 -3.77409056819807709E-10
  402.000000  1.22416332198050199E+02  1.44055260459907885E+02 -2.21339088795188630E+01  5.31451974510189884E-01 -3.73887957798471893E-02  9.26013634258166657E-04 -8.63968366792885357E-06  6.53188944047261628E-08 -3.38658100097999563E-10
  404.000000  1.24238501939671281E+02  1.45725771160998221E+02 -2.19491819868392142E+01  4.96432153607656856E-01 -3.53773935766585473E-02  8.65873333810992921E-04 -7.92649521669819809E-06  5.89462203416174746E-08 -3.03505885663061042E-10
  406.000000  1.25885992222850788E+02  1.47189810909905532E+02 -2.17341908166192113E+01  4.63003972016975185E-01 -3.34332748563869950E-02  8.08641683498730513E-04 -7.26211811401081636E-06  5.31101120101221295E-08 -2.71658462224792716E-10
  408.000000  1.27348352337530315E+02  1.48437670008449714E+02 -2.14896850163140662E+01  4.31178600368256448E-01 -3.15589659530779998E-02  7.54307873136242195E-04 -6.64442643565127065E-06  4.77756352575504227E-08 -2.42844631474303867E-10
  410.000000  1.28617134162195669E+02  1.49462017678309564E+02 -2.12167858001489122E+01  4.00962181260657247E-01 -2.97567207566555650E-02  7.02852155408931071E-04 -6.07131708200121944E-06  4.29094889330942151E-08 -2.16813821552097798E-10
  412.000000  1.29686025084293391E+02  1.50258013464447771E+02 -2.09169641390954091E+01  3.72355491665697425E-01 -2.80284754807798853E-02  6.54245174611851584E-04 -5.54070509046898329E-06  3.84798938144171761E-08 -1.93334223832736792E-10
  414.000000  1.30550930570788552E+02  1.50823360020170156E+02 -2.05920108065332990E+01  3.45353738043071679E-01 -2.63758122735480820E-02  6.08447619459869817E-04 -5.05052161158094592E-06  3.44565082844013746E-08 -1.72191160207182738E-10
  416.000000  1.31210004456741359E+02  1.51158296426733244E+02 -2.02439993519695314E+01  3.19946471789925246E-01 -2.47999319348820163E-02  5.65410179558409505E-04 -4.59871415297384585E-06  3.08103658717885074E-08 -1.53185653436306451E-10
  418.000000  1.31663626843708556E+02  1.51265533244047646E+02 -1.98752432948190005E+01  2.96117612341167846E-01 -2.33016357683259803E-02  5.25073778047733912E-04 -4.18324869513540347E-06  2.75138301300357762E-08 -1.36133176322487836E-10
  420.000000  1.31914331290251653E+02  1.51150132436155332E+02 -1.94882489872897722E+01  2.73845565407421110E-01 -2.18813163752974542E-02  4.87370047553892509E-04 -3.80211329279029310E-06  2.45405627367309972E-08 -1.20862554693510369E-10
  422.000000  1.31966684644811494E+02  1.50819337071676216E+02 -1.90856656846264592E+01  2.53103424313124437E-01 -2.05389569997832359E-02  4.52222012876393970E-04 -3.45332279391701569E-06  2.18655011096008705E-08 -1.07215004916182627E-10
  424.000000  1.31827124341714352E+02  1.50282357189550709E+02 -1.86702343814017482E+01  2.33859243032587233E-01 -1.92741388545151771E-02  4.19544941838154064E-04 -3.13492433266246151E-06  1.94648423282536941E-08 -9.50432848349403660E-11
  426.000000  1.31503759188329468E+02  1.49550119381533960E+02 -1.82447369272243201E+01  2.16076370179044963E-01 -1.80860557128118341E-02  3.89247325053676421E-04 -2.84500328474623341E-06  1.73160305665115110E-08 -8.42109418346989020E-11
  428.000000  1.31006140573431395E+02  1.48634988439378617E+02 -1.78119468304617392E+01  1.99713833862361828E-01 -1.69735349278786959E-02  3.61231946277541403E-04 -2.58168940565958349E-06  1.53977457237199996E-08 -7.45916415559096468E-11
  430.000000  1.30345011595233217E+02  1.47550469827517077E+02 -1.73745830036917326E+01  1.84726767892080007E-01 -1.59350639520351410E-02  3.35397006891551322E-04 -2.34316290838047660E-06  1.36898913814217590E-08 -6.60685625817315110E-11
  432.000000  1.29532041838771079E+02  1.46310901779215840E+02 -1.69352675110389406E+01  1.71066870239516000E-01 -1.49688213710411390E-02  3.11637270946483861E-04 -2.12766027470413687E-06  1.21735806096985362E-08 -5.85338449640570832E-11
  434.000000  1.28579555438264492E+02  1.44931145499433512E+02 -1.64964881572668318E+01  1.58682885038184118E-01 -1.40727114406914381E-02  2.89845200752230216E-04 -1.93347962950087208E-06  1.08311185620466946E-08 -5.18880815676962760E-11
  436.000000  1.27500259670562272E+02  1.43426281333683391E+02 -1.60605665243453331E+01  1.47521099668356859E-01 -1.32444011155857955E-02  2.69912057047045121E-04 -1.75898554377905091E-06  9.64598110766674311E-09 -4.60398426447954068E-11
  438.000000  1.26306980683961044E+02  1.41811317884046645E+02 -1.56296318250897492E+01  1.37525848702437725E-01 -1.24813585891166284E-02  2.51728942108836798E-04 -1.60261316392464712E-06  8.60278912134605574E-09 -4.09052265316872324E-11
  440.000000  1.25012412124205980E+02  1.40100919983832512E+02 -1.52056007164097320E+01  1.28640016657391637E-01 -1.17808924218677970E-02  2.35187768412698878E-04 -1.46287159921675510E-06  7.68727822638388247E-09 -3.64074303276597757E-11
  442.000000  1.23628881434617441E+02  1.38309160247826753E+02 -1.47901630052427571E+01  1.20805531790759424E-01 -1.11401904045099597E-02  2.20182139934298361E-04 -1.33834652305444395E-06  6.88626412072762272E-09 -3.24763352187491712E-11
  444.000000  1.22168137539069320E+02  1.36449297663160195E+02 -1.43847729966524973E+01  1.13963843366864478E-01 -1.05563573988512079E-02  2.06608137016070525E-04 -1.22770197337850236E-06  6.18760369810960605E-09 -2.90481041834227579E-11
  446.000000  1.20641162522780192E+02  1.34533585437960170E+02 -1.39906460797404115E+01  1.08056375187102760E-01 -1.00264514990035820E-02  1.94364999589179968E-04 -1.12968135638367404E-06  5.58015237989096959E-09 -2.60647891903755116E-11
  448.000000  1.19058008859411956E+02  1.32573109137835075E+02 -1.36087600266051147E+01  1.03024948519097256E-01 -9.54751796644092571E-03  1.83355706752795158E-04 -1.04310767842970905E-06  5.05371814153147340E-09 -2.34739468535767027E-11
  450.000000  1.17427662739617489E+02  1.30577655060203284E+02 -1.32398603932216101E+01  9.88121679897505933E-02 -9.11662050234156827E-03  1.73487453639039176E-04 -9.66883044119701125E-07  4.59901280561059186E-09 -2.12282621519405890E-11
  452.000000  1.15757933174542558E+02  1.28555607861597906E+02 -1.28844693581540586E+01  9.53617644005176623E-02 -8.73086953143277153E-03  1.64672028779879425E-04 -8.99987472619468377E-07  4.20760118416443512E-09 -1.92851803471617432E-11
  454.000000  1.14055365807281561E+02  1.26513875690377702E+02 -1.25428973131275612E+01  9.26188888305251451E-02 -8.38744727337708586E-03  1.56826097138639952E-04 -8.41477091240783009E-07  3.87184867973372553E-09 -1.76065479196198537E-11
  456.000000  1.12325179787165354E+02  1.24457840504896751E+02 -1.22152565254411076E+01  9.05303526980008322E-02 -8.08362947062207793E-03  1.49871395385102902E-04 -7.90481771135561099E-07  3.58486793341615618E-09 -1.61582630499589023E-11
  458.000000  1.10571225661038866E+02  1.22391330886670431E+02 -1.19014762224700448E+01  8.90448085923413596E-02 -7.81680372403643561E-03  1.43734846912877329E-04 -7.46202273789602563E-07  3.34046506215679906E-09 -1.49099372811984458E-11
  460.000000  1.08795962020923270E+02  1.20316614493122444E+02 -1.16013184982144537E+01  8.81128666494174900E-02 -7.58448445117548657E-03  1.38348604748690006E-04 -7.07906975363391987E-07  3.13308599545385459E-09 -1.38345687840624379E-11
  462.000000  1.07000448623942276E+02  1.18234407337092875E+02 -1.13143945075217811E+01  8.76871408567352628E-02 -7.38432453278972407E-03  1.33650030621832296E-04 -6.74928235213084716E-07  2.95776334587168235E-09 -1.29082290360202236E-11
  464.000000  1.05184353873225135E+02  1.16143897331367555E+02 -1.10401804910696857E+01  8.77222189113364970E-02 -7.21412374193189637E-03  1.29581618371710857E-04 -6.46658469820856770E-07  2.81006418553823530E-09 -1.21097631241145893E-11
