# Wavelength || Total || n=1 | n=2 | ...
  300.000000  2.47080529754292766E+04  1.50825027062604368E+04  1.09924640250397715E+04 -7.96535472265822250E+02 -4.90647788181600561E+02 -4.94693411052271159E+01 -2.91194678660107549E+01 -1.70994749373584187E+00  5.68261041466309513E-01
  302.000000  2.47597696013862660E+04  1.52168853519988934E+04  1.09517378685490075E+04 -8.49011004374046365E+02 -4.83147405398047908E+02 -4.73526654077294680E+01 -2.83489678403552077E+01 -1.54533031840862112E+00  5.51754176950160602E-01
  304.000000  2.48086756532051259E+04  1.53475220648695540E+04  1.09088773403209652E+04 -8.98472555448490766E+02 -4.75448556235824185E+02 -4.53363778247629128E+01 -2.76072797251327984E+01 -1.39446138379556062E+00  5.35478632614166283E-01
  306.000000  2.48547508964534318E+04  1.54744715763452805E+04  1.08639330643188569E+04 -9.45019670779196531E+02 -4.67585479725105131E+02 -4.34194947186596707E+01 -2.68923855013076789E+01 -1.25617106152516578E+00  5.19457575092456492E-01
  308.000000  2.48980255617802432E+04  1.55978265617440484E+04  1.08169778090781820E+04 -9.88759171073206176E+02 -4.59591119637937538E+02 -4.16003738888594512E+01 -2.62024707991908734E+01 -1.12938537025169627E+00  5.03711727460145586E-01
  310.000000  2.49385795609095367E+04  1.57177126080514045E+04  1.07681057883830726E+04 -1.02980425176311451E+03 -4.51497020478425043E+02 -3.98767941054496475E+01 -2.55359092917935584E+01 -1.01311935324714719E+00  4.88259467089429744E-01
  312.000000  2.49765406628373566E+04  1.58342865861781302E+04  1.07174314779743436E+04 -1.06827354459207049E+03 -4.43333224323111949E+02 -3.82460315432261737E+01 -2.48912470368394345E+01 -9.06470731506452854E-01  4.73116911631577208E-01
  314.000000  2.50120816679226991E+04  1.59477344411564500E+04  1.06650879811601317E+04 -1.10429014693810268E+03 -4.35128171803361738E+02 -3.67049329004555105E+01 -2.42671868958227748E+01 -8.08613853168649865E-01  4.58297997029303794E-01
  316.000000  2.50454166433126447E+04  1.60582684295396884E+04  1.06112249881148055E+04 -1.13798062645944174E+03 -4.26908610313531256E+02 -3.52499849999146662E+01 -2.36625731678522087E+01 -7.18793952178709561E-01  4.43814551070194629E-01
  318.000000  2.50767963074601685E+04  1.61661238485810190E+04  1.05560063840527328E+04 -1.16947401030648325E+03 -4.18699512230970868E+02 -3.38773806977624190E+01 -2.30763765814393835E+01 -6.36321722497487641E-01  4.29676365568081031E-01
  320.000000  2.51065026733455670E+04  1.62715553159714527E+04  1.04996075699659268E+04 -1.19890076933876776E+03 -4.10524005562383934E+02 -3.25830809636762453E+01 -2.25076797880683976E+01 -5.60568208721088368E-01  4.15891269802595387E-01
  322.000000  2.51348430784363336E+04  1.63748326713871320E+04  1.04422125659014928E+04 -1.22639180851128867E+03 -4.02403319002964338E+02 -3.13628730389369856E+01 -2.19556634968745144E+01 -4.90960009586483948E-01  4.02465207360927058E-01
  324.000000  2.51621437436665437E+04  1.64762365813133547E+04  1.03840109706313397E+04 -1.25207747487559709E+03 -3.94356742929319580E+02 -3.02124246238139271E+01 -2.14195933800406877E+01 -4.26974787403917200E-01  3.89402318019269611E-01
  326.000000  2.51887430132045884E+04  1.65760539361497613E+04  1.03251948529290039E+04 -1.27608659451152243E+03 -3.86401607362335028E+02 -2.91273340883445542E+01 -2.08988078639114612E+01 -3.68137073850600238E-01  3.76705025786851500E-01
  328.000000  2.52149844312639143E+04  1.66745731332236355E+04  1.02659556485738140E+04 -1.29854554921354134E+03 -3.78553277451961208E+02 -2.81031767390858533E+01 -2.03927069020085483E+01 -3.14014360667829950E-01  3.64374133729119143E-01
  330.000000  2.52412098115990193E+04  1.67720793408998215E+04  1.02064811337698047E+04 -1.31957740295570989E+03 -3.70825166567327358E+02 -2.71355472067823271E+01 -1.99007418039796100E+01 -2.64213462512468078E-01  3.52408925703372455E-01
  332.000000  2.52677524499042811E+04  1.68688498375620329E+04  1.01469525401766841E+04 -1.33930108711557182E+03 -3.63228766639699757E+02 -2.62200980453164973E+01 -1.94224061701277542E+01 -2.18377138418875960E-01  3.40807274696602158E-01
  334.000000  2.52949306195224126E+04  1.69651495150333503E+04  1.00875418695256194E+04 -1.35783065221643142E+03 -3.55773695013267741E+02 -2.53525746502762779E+01 -1.89572279557114385E+01 -1.76180957935776178E-01  3.29565757064492371E-01
  336.000000  2.53230414773068551E+04  1.70612266293180946E+04  1.00284094572306767E+04 -1.37527459261572358E+03 -3.48467756719913098E+02 -2.45288466161897780E+01 -1.85047626638063960E+01 -1.37330397928745740E-01  3.18679771643327614E-01
  338.000000  2.53523554899627379E+04  1.71573088728172406E+04  9.96970182494068104E+03 -1.39173524919063584E+03 -3.41317020814115097E+02 -2.37449356553672821E+01 -1.80645876413005837E+01 -1.01558156214576492E-01  3.08143662450376610E-01
  340.000000  2.53831114725433763E+04  1.72535998318603015E+04  9.91154985203328761E+03 -1.40730829370854235E+03 -3.34325909186820979E+02 -2.29970401993418854E+01 -1.76362974304571019E+01 -6.86216685555008643E-02  2.97950843506860519E-01
  342.000000  2.54155123108702210E+04  1.73502758820154741E+04  9.85406728604250202E+03 -1.42208229726858917E+03 -3.27497296121068757E+02 -2.22815567970553232E+01 -1.72195001092091928E+01 -3.83008160442044956E-02  2.88093924210425401E-01
  344.000000  2.54497214193047694E+04  1.74474835616865203E+04  9.79734960230218712E+03 -1.43613838400004784E+03 -3.20832616755897106E+02 -2.15950984136506676E+01 -1.68138145374782937E+01 -1.03958105118048868E-02  2.78564833648182075E-01
  346.000000  2.54858599652975608E+04  1.75453374524542487E+04  9.74147321399633802E+03 -1.44954997012992612E+03 -3.14331982583080730E+02 -2.09345097213404898E+01 -1.64188684146851394E+01  1.52747537380119192E-02  2.69354942270484177E-01
  348.000000  2.55240048730996132E+04  1.76439185828678710E+04  9.68649502557046799E+03 -1.46238258759706969E+03 -3.07994302107699468E+02 -2.02968794608812502E+01 -1.60342970453588691E+01  3.88756928517210859E-02  2.60455179431332451E-01
  350.000000  2.55641876015016460E+04  1.77432733613036107E+04  9.63245231526471434E+03 -1.47469379059640733E+03 -3.01817404851449908E+02 -1.96795499402075400E+01 -1.56597427053069769E+01  6.05568812523386776E-02  2.51856145434292855E-01
  352.000000  2.56063936748473534E+04  1.78434130333420471E+04  9.57936292648394374E+03 -1.48653314277288837E+03 -2.95798166959349942E+02 -1.90801237271986324E+01 -1.52948544999657638E+01  8.04547638748209504E-02  2.43548216892452069E-01
  354.000000  2.56505629331100463E+04  1.79443136500609216E+04  9.52722574287095085E+03 -1.49794228223222331E+03 -2.89932636778950496E+02 -1.84964675876871958E+01 -1.49392886089617001E+01  9.86937415865225820E-02  2.35521644406904596E-01
  356.000000  2.56965904557116191E+04  1.80459165258433168E+04  9.47602141830685287E+03 -1.50895506107364986E+03 -2.84216158909628348E+02 -1.79267137187357761E+01 -1.45927088161819718E+01  1.15387437865775461E-01  2.27766641780750456E-01
  358.000000  2.57443281050054757E+04  1.81481291577893426E+04  9.42571333057005359E+03 -1.51959775574863738E+03 -2.78643495361661508E+02 -1.73692583317145122E+01 -1.42547872322660396E+01  1.30639854149828816E-01  2.20273466205040430E-01
  360.000000  2.57935866289290607E+04  1.82508265736199392E+04  9.37624872597840476E+03 -1.52988934418740382E+03 -2.73208942615513024E+02 -1.68227576501898675E+01 -1.39252051259009395E+01  1.44546420656607916E-01  2.13032489071701081E-01
  362.000000  2.58441382581303296E+04  1.83538530710185187E+04  9.32756002191441439E+03 -1.53984184528697392E+03 -2.67906443526591659E+02 -1.62861214041564040E+01 -1.36036537911101743E+01  1.57194948944642726E-01  2.06034257279001515E-01
  364.000000  2.58957197307447277E+04  1.84570243086139089E+04  9.27956623459040202E+03 -1.54946071600649793E+03 -2.62729693176537637E+02 -1.57585039242730609E+01 -1.32898353893809187E+01  1.68666492013385655E-01  1.99269545092141565E-01
  366.000000  2.59480356776984336E+04  1.85601297071334375E+04  9.23217450061407726E+03 -1.55874530095358796E+03 -2.57672237925493505E+02 -1.52392929666800292E+01 -1.29834637174871634E+01  1.79036117368008618E-01  1.92729396800023656E-01
  368.000000  2.60007623027628870E+04  1.86629351185737542E+04  9.18528166276471347E+03 -1.56768932897133323E+03 -2.52727567069658704E+02 -1.47280964295040349E+01 -1.26842648638355477E+01  1.88373598183240482E-01  1.86405160566427391E-01
  370.000000  2.60535512942865680E+04  1.87651857213823350E+04  9.13877589274745333E+03 -1.57628145084985772E+03 -2.47889196652441939E+02 -1.42247271547458798E+01 -1.23919777276772560E+01  1.96744027498000740E-01  1.80288514006700706E-01
  372.000000  2.61060339093526272E+04  1.88666091005079907E+04  9.09253832644914473E+03 -1.58450581190323760E+03 -2.43150745115200777E+02 -1.37291860421677274E+01 -1.21063543862804739E+01  2.04208360251206755E-01  1.74371482128712868E-01
  374.000000  2.61578251757695907E+04  1.89669184726114290E+04  9.04644469025003491E+03 -1.59234265278634439E+03 -2.38506000603774083E+02 -1.32416437331815491E+01 -1.18271603048502456E+01  2.10823887918115016E-01  1.68646448358302115E-01
  376.000000  2.62085281625416610E+04  1.90658160186033929E+04  9.00036690013957741E+03 -1.59976893159885071E+03 -2.33948979869259489E+02 -1.27624211507166585E+01 -1.15541743924154847E+01  2.16644650511500531E-01  1.63106159425198127E-01
  378.000000  2.62577382750253164E+04  1.91629962878675506E+04  8.95417461863083918E+03 -1.60675896005561344E+03 -2.29473978815316400E+02 -1.22919692039019566E+01 -1.12871889139045010E+01  2.21721790754451364E-01  1.57743724916115047E-01
  380.000000  2.63050475365878592E+04  1.92581496408914500E+04  8.90773675764987274E+03 -1.61328504631553415E+03 -2.25075614848838825E+02 -1.18308479825821529E+01 -1.10260092741039930E+01  2.26103855291206579E-01  1.52552612308818863E-01
  382.000000  2.63500488240600316E+04  1.93509656994949546E+04  8.86092291860895784E+03 -1.61931813697568532E+03 -2.20748861286109928E+02 -1.13797057751111179E+01 -1.07704536931228496E+01  2.29837047859122928E-01  1.47526638286705092E-01
  384.000000  2.63923400293406776E+04  1.94411367762618684E+04  8.81360476363839734E+03 -1.62482845076659532E+03 -2.16489074151409710E+02 -1.09392582427054297E+01 -1.05203527953523484E+01  2.32965439378193639E-01  1.42659957099809165E-01
  386.000000  2.64315281240653676E+04  1.95283612571206831E+04  8.76565731438924195E+03 -1.62978609664243936E+03 -2.12292011779229313E+02 -1.05102680746388906E+01 -1.02755491348461057E+01  2.35531139907754872E-01  1.37947046688484343E-01
  388.000000  2.64672331080843433E+04  1.96123469131662205E+04  8.71696017683998616E+03 -1.63416166924796744E+03 -2.08153847693988581E+02 -1.00935254308654709E+01 -1.00358966796304490E+01  2.37574437359479251E-01  1.33382693222908633E-01
  390.000000  2.64990918255784200E+04  1.96928141197730256E+04  8.66739869210888901E+03 -1.63792681516512243E+03 -2.04071177291945418E+02 -9.68982945289093855E+00 -9.80126027590805826E+00  2.39133907732880541E-01  1.28961974638820781E-01
  392.000000  2.65267616348673982E+04  1.97694989627549076E+04  8.61686501434336424E+03 -1.64105476388633201E+03 -2.00041018888193747E+02 -9.29997109085340412E+00 -9.57151511061390181E+00  2.40246501450116612E-01  1.24680243670388075E-01
  394.000000  2.65499239193800495E+04  1.98421562128070182E+04  8.56525911733209432E+03 -1.64352081811906282E+03 -1.96060809717159373E+02 -8.92471745617328516E+00 -9.34654618758352562E+00  2.40947610112527216E-01  1.20533110798557261E-01
  396.000000  2.65682874279012358E+04  1.99105621507397882E+04  8.51248973157928049E+03 -1.64530279878015631E+03 -1.92128397487548710E+02 -8.56479786632955609E+00 -9.12624782893393771E+00  2.41271117688053649E-01  1.16516427450623086E-01
  398.000000  2.65815914321698256E+04  1.99745172271042211E+04  8.45847521322877947E+03 -1.64638144086765305E+03 -1.88242028092630022E+02 -8.22089170298941774E+00 -8.91052320938549514E+00  2.41249439775368751E-01  1.12626269706931223E-01
  400.000000  2.65896086893631436E+04  2.00338485408090091E+04  8.40314434551066370E+03 -1.64674073728273856E+03 -1.84400330064652707E+02 -7.89361815860590621E+00 -8.69928392741709011E+00  2.40913554191011486E-01  1.08858922696345714E-01
  402.000000  2.65921481960854253E+04  2.00884121222659742E+04  8.34643707236945738E+03 -1.64636822858783330E+03 -1.80602296338814597E+02 -7.58352790131047083E+00 -8.49244961354540884E+00  2.40293025702793456E-01  1.05210865795147504E-01
  404.000000  2.65890577194526159E+04  2.01380950076017180E+04  8.28830516275162518E+03 -1.64525523760948658E+03 -1.76847263859379893E+02 -7.29109664499768950E+00 -8.28994757285017236E+00  2.39416027302099238E-01  1.01678758686272908E-01
  406.000000  2.65802260898892600E+04  2.01828170915785850E+04  8.22871280277074584E+03 -1.64339704870053538E+03 -1.73134891519354483E+02 -7.01672057218286493E+00 -8.09171245626461655E+00  2.38309359982458863E-01  9.82594282880275005E-02
  408.000000  2.65655852395700786E+04  2.02225327481753120E+04  8.16763711176565084E+03 -1.64079303234617896E+03 -1.69465136878067199E+02 -6.76071352253320867E+00 -7.89768595321218658E+00  2.36998472585314673E-01  9.49498565242379716E-02
  410.000000  2.65451119702463147E+04  2.02572322093558687E+04  8.10506857723129269E+03 -1.63744671661507664E+03 -1.65838232049926887E+02 -6.52330583066161651E+00 -7.70781649695913984E+00  2.35507482896000875E-01  9.17471688811848235E-02
  412.000000  2.65188294346445582E+04  2.02869426944398401E+04  8.04101140283490349E+03 -1.63336580770300498E+03 -1.62254659104894387E+02 -6.30464467323428135E+00 -7.52205897356275877E+00  2.33859200831978170E-01  8.86486236800285154E-02
  414.000000  2.64868083168599405E+04  2.03117292847245226E+04  7.97548376332333828E+03 -1.62856216248210399E+03 -1.58715125268728315E+02 -6.10479576783384470E+00 -7.34037442550244990E+00  2.32075154266031897E-01  8.56516019858929167E-02
  416.000000  2.64491676992586654E+04  2.03316955406010675E+04  7.90851796014370848E+03 -1.62305171654463015E+03 -1.55220538161202654E+02 -5.92374625421583190E+00 -7.16272974190999978E+00  2.30175617772619440E-01  8.27535980751039069E-02
  418.000000  2.64060756063761473E+04  2.03469838613321699E+04  7.84016047207480824E+03 -1.61685437171030617E+03 -1.51771981264375881E+02 -5.76140858224338093E+00 -6.98909732866646571E+00  2.28179644375346630E-01  7.99522103887256308E-02
  420.000000  2.63577492201086425E+04  2.03577755908733125E+04  7.77047189610621535E+03 -1.60999384734901491E+03 -1.48370689772218526E+02 -5.61762522938188091E+00 -6.81945475338402218E+00  2.26105100206530518E-01  7.72451329119546864E-02
  422.000000  2.63044547650695895E+04  2.03642908765634820E+04  7.69952677518753990E+03 -1.60249750015634663E+03 -1.45018026938044699E+02 -5.49217407352675213E+00 -6.65378436231228587E+00  2.23968701862185621E-01  7.46301469334586381E-02
  424.000000  2.62465070681544603E+04  2.03667882910815388E+04  7.62741331124336739E+03 -1.59439611721033043E+03 -1.41715461007648230E+02 -5.38477425340775273E+00 -6.49207286835618191E+00  2.21786056143637722E-01  7.21051131547901930E-02
  426.000000  2.61842688019372799E+04  2.03655642316511803E+04  7.55423296393116834E+03 -1.58572368723799218E+03 -1.38464542803394977E+02 -5.29509235810152479E+00 -6.33431091153441983E+00  2.19571701814823356E-01  6.96679641360591073E-02
  428.000000  2.61181494273185745E+04  2.03609521139863864E+04  7.48009993792185287E+03 -1.57651715503840114E+03 -1.35266884007530678E+02 -5.22274879855080698E+00 -6.18049259522851724E+00  2.17339152967680138E-01  6.73166970789934871E-02
  430.000000  2.60486038565636700E+04  2.03533213817357755E+04  7.40514056387661367E+03 -1.56681616394895832E+03 -1.32124136180228618E+02 -5.16732422671426050E+00 -6.03061500335346601E+00  2.15100943571293418E-01  6.50493669611297010E-02
  432.000000  2.59761308633117951E+04  2.03430763551246600E+04  7.32949258067484789E+03 -1.55666279111546578E+03 -1.29037970538619760E+02 -5.12836588140800931E+00 -5.88467770505068355E+00  2.12868672779382428E-01  6.28640800446018388E-02
  434.000000  2.59012712710196211E+04  2.03306549449596059E+04  7.25330432868575645E+03 -1.54610128014044608E+03 -1.26010058515602182E+02 -5.10539375347368374E+00 -5.74268225459019455E+00  2.10653050580950962E-01  6.07589877891922397E-02
  436.000000  2.58246059554312524E+04  2.03165272600748503E+04  7.17673386586340075E+03 -1.53517777545029048E+03 -1.23042053110336028E+02 -5.09790647612539249E+00 -5.60463169484286983E+00  2.08463943397074414E-01  5.87322812018672910E-02
  438.000000  2.57467536998274591E+04  2.03011941375573151E+04  7.09994802007942599E+03 -1.52394006244769639E+03 -1.20135571034788342E+02 -5.10538685878053133E+00 -5.47053007292258897E+00  2.06310419250012284E-01  5.67821856539077741E-02
  440.000000  2.56683689438423535E+04  2.02851856256253777E+04  7.02312139230286266E+03 -1.51243731721278641E+03 -1.17292175651000321E+02 -5.12730699403339063E+00 -5.34038197641657497E+00  2.04200792156527838E-01  5.49069561921868218E-02
  442.000000  2.55901394674451039E+04  2.02690594488185525E+04  6.94643532593834061E+03 -1.50071986919369488E+03 -1.14513360681412692E+02 -5.16313287743640270E+00 -5.21419209804074146E+00  2.02142665424048296E-01  5.31048733635822029E-02
  444.000000  2.55127840511572249E+04  2.02533994841310378E+04  6.87007685778927407E+03 -1.48883897999405826E+03 -1.11800534658325986E+02 -5.21232848819927685E+00 -5.09196483561489277E+00  2.00142973554276765E-01  5.13742395613576569E-02
  446.000000  2.54370501516979748E+04  2.02388142748930804E+04  6.79423766571326178E+03 -1.47684664102978491E+03 -1.09155006058293154E+02 -5.27435928566243639E+00 -4.97370393300273861E+00  1.98208022483097324E-01  4.97133758902587874E-02
  448.000000  2.53637116290007507E+04  2.02259356065661814E+04  6.71911302707692175E+03 -1.46479539249977006E+03 -1.06577969042541824E+02 -5.34869508132432170E+00 -4.85941216615415783E+00  1.96343527907329923E-01  4.81206195335762005E-02
  450.000000  2.52935665559243789E+04  2.02154171651592551E+04  6.64490080061315257E+03 -1.45273816579996219E+03 -1.04070489695223131E+02 -5.43481224921840145E+00 -4.74909107667932684E+00  1.94554651466902456E-01  4.65943215911055336E-02
  452.000000  2.52274351360403562E+04  2.02079332947163275E+04  6.57180044227015424E+03 -1.44072815121624649E+03 -1.01633492617789372E+02 -5.53219523846998307E+00 -4.64274075353149573E+00  1.92846034564936153E-01  4.51328453423273726E-02
  454.000000  2.51661577476109196E+04  2.02041778652421526E+04  6.50001206314816955E+03 -1.42881869246155566E+03 -9.92677477000697195E+01 -5.64033735084960330E+00 -4.54035966141995129E+00  1.91221829616973621E-01  4.37345648746401069E-02
  456.000000  2.51105931233139563E+04  2.02048632565143344E+04  6.42973553469163744E+03 -1.41706320938164072E+03 -9.69738568473198370E+01 -5.75874074302464933E+00 -4.44194451255765355E+00  1.89685728523462022E-01  4.23978640024678527E-02
  458.000000  2.50616166654007138E+04  2.02107194564263555E+04  6.36116964297594495E+03 -1.40551514994312492E+03 -9.47522403977795591E+01 -5.88691560793163582E+00 -4.34749017630091394E+00  1.88240988155351896E-01  4.11211353898157592E-02
  460.000000  2.50201188847459234E+04  2.02224932647422684E+04  6.29451129022769692E+03 -1.39422797243701416E+03 -9.26031229180491380E+01 -6.02437848221448835E+00 -4.25698961916992591E+00  1.86890452630462250E-01  3.99027797764893999E-02
  462.000000  2.49870039395760141E+04  2.02409475843089640E+04  6.22995473766400846E+03 -1.38325515867773424E+03 -9.05265180139399206E+01 -6.17064961694898706E+00 -4.17043386566820207E+00  1.85636572135906952E-01  3.87412051968652540E-02
  464.000000  2.49631882354096633E+04  2.02668607717277409E+04  6.16769087933424180E+03 -1.37265025884754891E+03 -8.85222117436962321E+01 -6.32524933692591862E+00 -4.08781196823437476E+00  1.84481418018302284E-01  3.76348260698765313E-02
