# Wavelength || Total || n=1 | n=2 | ...
  300.000000  9.08724566050465000E+03  5.73197596754917959E+03  3.27291349456627722E+03  7.15389116615871075E+01  1.01790260887388389E+01  6.10561023731614916E-01  2.72641326124527551E-02  4.29389764893541048E-04  6.09275608915665259E-06
  302.000000  9.02671846197791456E+03  5.71674016699388812E+03  3.23091322513282466E+03  6.87672299096396387E+01  9.69633248615018140E+00  5.75907815406912160E-01  2.52077475896353501E-02  3.86398272470343796E-04  5.49414449475449490E-06
  304.000000  8.96333883070729644E+03  5.69950136386301347E+03  3.18783647427381220E+03  6.61960213507381212E+01  9.23787189998879832E+00  5.43417158990239013E-01  2.33289052361026518E-02  3.48295231761883487E-04  4.96028767827656997E-06
  306.000000  8.89733885849896433E+03  5.68038215152180783E+03  3.14381236917743581E+03  6.38070421057930162E+01  8.80242678707066517E+00  5.12939854524354200E-01  2.16101039178527264E-02  3.14464964019107952E-04  4.48344936055557700E-06
  308.000000  8.82897584781744445E+03  5.65952343078712511E+03  3.09897506683878555E+03  6.15838290583033157E+01  8.38885748479126114E+00  4.84339449797888011E-01  2.00357663706594476E-02  2.84375360953770685E-04  4.05690871733468668E-06
  310.000000  8.75852924362697195E+03  5.63708300715191945E+03  3.05346222987285182E+03  5.95115684999663657E+01  7.99609400241996582E+00  4.57490840131880683E-01  1.85920188057987282E-02  2.57566061769906281E-04  3.67481730496615123E-06
  312.000000  8.68629712486189783E+03  5.61323380069097402E+03  3.00741344779518568E+03  5.75769653335862586E+01  7.62312855350969265E+00  4.32279024358632080E-01  1.72664938986049829E-02  2.33638308273961603E-04  3.33207681809561288E-06
  314.000000  8.61259232374293606E+03  5.58816170776965737E+03  2.96096863167785614E+03  5.57681140487648008E+01  7.26900881791792308E+00  4.08598002778576719E-01  1.60481554747785964E-02  2.12246247616719501E-04  3.02423465076187681E-06
  316.000000  8.53773825241215491E+03  5.56206316361766676E+03  2.91426641150516161E+03  5.40743725879225252E+01  6.93283191772197860E+00  3.86349803940047476E-01  1.49271428646963987E-02  1.93089481784406201E-04  2.74739466449442019E-06
  318.000000  8.46206452510644704E+03  5.53514246310795806E+03  2.86744256612322579E+03  5.24862401224599182E+01  6.61373908686008249E+00  3.65443628066132009E-01  1.38946330436082281E-02  1.75906689165857444E-04  2.49814093903597838E-06
  320.000000  8.38590246989859770E+03  5.50760890334250416E+03  2.82062851533256253E+03  5.09952396555806118E+01  6.31091100964593110E+00  3.45795095848867196E-01  1.29427188146896792E-02  1.60470166661858048E-04  2.27347260112547179E-06
  322.000000  8.30958062661167787E+03  5.47967381562668834E+03  2.77394990238481023E+03  4.95938062562369879E+01  6.02356379846826684E+00  3.27325592143835165E-01  1.20643014223815580E-02  1.46581161155422352E-04  2.07074810138115872E-06
  324.000000  8.23342032676382769E+03  5.45154755598761494E+03  2.72752529294862870E+03  4.82751816069635993E+01  5.75094557616639612E+00  3.09961694833360279E-01  1.12529961057590590E-02  1.34065877004096214E-04  1.88763754496015099E-06
  326.000000  8.15773144738862993E+03  5.42343652254561675E+03  2.68146501357788338E+03  4.70333154180287849E+01  5.49233362394832891E+00  2.93634679792338316E-01  1.05030492165659791E-02  1.22772061810505115E-04  1.72208188380258344E-06
  328.000000  8.08280842358742211E+03  5.39554026492868343E+03  2.63587014898544703E+03  4.58627741242811950E+01  5.24703205153052998E+00  2.78280093500274828E-01  9.80926563493690271E-03  1.12566086323188932E-04  1.57225795166743232E-06
  330.000000  8.00892659507250119E+03  5.36804874574464611E+03  2.59083171314493802E+03  4.47586571426074400E+01  5.01436994258899649E+00  2.63837385407449332E-01  9.16694531847910173E-03  1.03330446144021481E-04  1.43654847192826308E-06
  332.000000  7.93633895031961492E+03  5.34113980725557758E+03  2.54643000461083511E+03  4.37165208316200733E+01  4.79369992582831195E+00  2.50249592696932310E-01  8.57182791806986900E-03  9.49616231812715341E-05  1.31351629576215191E-06
  334.000000  7.86527331885660988E+03  5.31497688823065255E+03  2.50273415165558481E+03  4.27323101650478208E+01  4.58439712010355738E+00  2.37463070597894899E-01  8.02004448694799803E-03  8.73682536772712678E-05  1.20188223793637558E-06
  336.000000  7.79593004830787504E+03  5.28970702692328814E+03  2.45980184806575107E+03  4.18022980103123842E+01  4.38585840115349956E+00  2.25427261908832915E-01  7.50807539878352304E-03  8.04695573268104393E-05  1.10050597144142915E-06
  338.000000  7.72848018773448621E+03  5.26545917668828588E+03  2.41767927590390173E+03  4.09230317971024107E+01  4.19750193764416135E+00  2.14094499888625112E-01  7.03271367556165209E-03  7.41939886380436496E-05  0.00000000000000000E+00
  340.000000  7.66306419228416689E+03  5.24234285133639332E+03  2.37640120738232463E+03  4.00912872698395830E+01  4.01876694535299528E+00  2.03419839172233524E-01  6.59103300730143511E-03  6.84780774060666679E-05  0.00000000000000000E+00
  342.000000  7.59979112972536041E+03  5.22044710829997348E+03  2.33599127433588683E+03  3.93040289440163733E+01  3.84911361036374799E+00  1.93360909866874875E-01  6.18035982271150381E-03  6.32654300884916203E-05  0.00000000000000000E+00
  344.000000  7.53873839458545990E+03  5.19983986936116253E+03  2.29646239071408672E+03  3.85583768300288483E+01  3.68802313498956780E+00  1.83877790482252751E-01  5.79824884266824832E-03  5.85058680966484218E-05  0.00000000000000000E+00
  346.000000  7.47995188873329971E+03  5.18056757131559971E+03  2.25781731109311067E+03  3.78515789487898928E+01  3.53499786365899071E+00  1.74932895841409697E-01  5.44246161664294851E-03  5.41546826366173551E-05  0.00000000000000000E+00
  348.000000  7.42344664169340012E+03  5.16265513265456229E+03  2.22004930645273407E+03  3.71809891398709809E+01  3.38956145003694953E+00  1.66490876602095522E-01  5.11094760567023382E-03  5.01719888313440816E-05  0.00000000000000000E+00
  350.000000  7.36920783016354380E+03  5.14610621723789063E+03  2.18314293736404170E+03  3.65440496534601778E+01  3.25125903106599301E+00  1.58518527487405081E-01  4.80182743395966491E-03  4.65221644987881867E-05  0.00000000000000000E+00
  352.000000  7.31719215290913598E+03  5.13090377200433886E+03  2.14707490425361266E+03  3.59382780198116265E+01  3.11965737825223055E+00  1.50984701773381802E-01  4.51337798467413027E-03  4.31733612128480386E-05  0.00000000000000000E+00
  354.000000  7.26732951451396457E+03  5.11701081297362089E+03  2.11181495449116073E+03  3.53612577017832734E+01  2.99434500125355907E+00  1.43860230005555645E-01  4.24401906368368411E-03  4.00970771875164687E-05  0.00000000000000000E+00
  356.000000  7.21952497033889085E+03  5.10437143206113706E+03  2.07732682662848538E+03  3.48106320552308190E+01  2.87493218354432667E+00  1.37117841312282496E-01  3.99230139829862603E-03  3.72677831475238484E-05  0.00000000000000000E+00
  358.000000  7.17366088525331452E+03  5.09291199641272215E+03  2.04356921311552492E+03  3.42841011461255718E+01  2.76105093452475625E+00  1.30732086046748519E-01  3.75689577619363986E-03  3.46625937216811614E-05  0.00000000000000000E+00
  360.000000  7.12959926005978832E+03  5.08254251194793324E+03  2.01049672416160683E+03  3.37794210004468596E+01  2.65235484684088751E+00  1.24679258819640246E-01  3.53658316315389690E-03  3.22609780542477251E-05  0.00000000000000000E+00
  362.000000  7.08718418179515811E+03  5.07315812342350637E+03  1.97806083701691637E+03  3.32944048914685169E+01  2.54851885181613635E+00  1.18937321279373093E-01  3.33024566715268500E-03  3.00445043061782744E-05  0.00000000000000000E+00
  364.000000  7.04624435705919404E+03  5.06464072446041791E+03  1.94621081675211190E+03  3.28269262978296581E+01  2.44923886972415339E+00  1.13485824256008339E-01  3.13685824091077545E-03  2.79966135392549381E-05  0.00000000000000000E+00
  366.000000  7.00659569096570976E+03  5.05686065246588350E+03  1.91489459653842368E+03  3.23749231937303392E+01  2.35423135510898529E+00  1.08305829108315696E-01  2.95548103581484527E-03  2.61024191653165160E-05  0.00000000000000000E+00
  368.000000  6.96804387808129741E+03  5.04967844512782358E+03  1.88405960742449975E+03  3.19364033593388719E+01  2.26323274046744460E+00  1.03379828302042565E-01  2.78525233725622750E-03  2.43485287204745925E-05  0.00000000000000000E+00
  370.000000  6.93038697562177731E+03  5.04294663703545757E+03  1.85365354960705190E+03  3.15094504246371514E+01  2.17599878431820803E+00  9.86916654018693135E-02  2.62538202544471350E-03  2.27228852076748582E-05  0.00000000000000000E+00
  372.000000  6.89341793309804598E+03  5.03651157691078242E+03  1.82362509915678243E+03  3.10922303835717528E+01  2.09230383198574588E+00  9.42264547815290093E-02  2.47514551693247403E-03  2.12146256552298717E-05  0.00000000000000000E+00
  374.000000  6.85692705641114480E+03  5.03021524783761197E+03  1.79392454604304794E+03  3.06829983376208553E+01  2.01193999931027090E+00  8.99705014475739168E-02  2.33387815080469052E-03  1.98139548767071960E-05  0.00000000000000000E+00
  376.000000  6.82070438800315878E+03  5.02389707469499444E+03  1.76450436106468987E+03  3.02801052490609663E+01  1.93471629095512965E+00  8.59112214343785013E-02  2.20096999010958123E-03  1.85120326996615396E-05  0.00000000000000000E+00
  378.000000  6.78454198799830465E+03  5.01739570469402679E+03  1.73531969090842676E+03  2.98820045046783918E+01  1.86045766602183238E+00  8.20370632633717345E-02  2.07586101394151810E-03  1.73008731663486736E-05  0.00000000000000000E+00
  380.000000  6.74823610425019797E+03  5.01055074844442606E+03  1.70632878198989010E+03  2.94872581106752811E+01  1.78900406430253645E+00  7.83374309704479438E-02  1.95803667896413732E-03  1.61732544064669242E-05  0.00000000000000000E+00
  382.000000  6.71158922183228606E+03  5.00320447033858272E+03  1.67749333497177872E+03  2.90945423595374351E+01  1.72020940672377121E+00  7.48026091951574934E-02  1.84702383136452273E-03  1.51226380468103361E-05  0.00000000000000000E+00
  384.000000  6.67441198471197094E+03  4.99520341820401700E+03  1.64877879287402789E+03  2.87026528297067642E+01  1.65394058337490990E+00  7.14236907960719147E-02  1.74238695151474488E-03  1.41430971609050522E-05  0.00000000000000000E+00
  386.000000  6.63652498417107927E+03  4.98639998317502614E+03  1.62015456649331691E+03  2.83105085993470986E+01  1.59007644201093323E+00  6.81925074122955305E-02  1.64372471423338429E-03  1.32292518779962924E-05  0.00000000000000000E+00
  388.000000  6.59776040995277981E+03  4.97665388155705205E+03  1.59159420142399540E+03  2.79171555762352597E+01  1.52850678910267423E+00  6.51015633344028538E-02  1.55066684768553594E-03  1.23762118690131950E-05  0.00000000000000000E+00
  390.000000  6.55796356119293705E+03  4.96583355115488393E+03  1.56307549133292491E+03  2.75217688669149467E+01  1.46913141443178397E+00  6.21439729828138498E-02  1.46287127382489562E-03  1.15795250106971756E-05  0.00000000000000000E+00
  392.000000  6.51699421494618218E+03  4.95381745511556801E+03  1.53458054229333788E+03  2.71236541294733087E+01  1.41185914893781961E+00  5.93134022208043690E-02  1.38002151300837855E-03  1.08351316006300605E-05  0.00000000000000000E+00
  394.000000  6.47472785062470666E+03  4.94049528685476525E+03  1.50609579295301160E+03  2.67222478755323927E+01  1.35660696408322945E+00  5.66040136564745361E-02  1.30182433513204954E-03  1.01393235577652200E-05  0.00000000000000000E+00
  396.000000  6.43105672899303954E+03  4.92576907012785978E+03  1.47761199512536336E+03  2.63171167079877968E+01  1.30329911946472032E+00  5.40104160158837721E-02  1.22800763943701715E-03  9.48870809710164261E-06  0.00000000000000000E+00
  398.000000  6.38589082456924461E+03  4.90955414881023262E+03  1.44912415907752029E+03  2.59079555013465033E+01  1.25186636382341354E+00  5.15276176007958830E-02  1.15831854508223410E-03  8.88017541486565166E-06  0.00000000000000000E+00
  400.000000  6.33915861047310773E+03  4.89178006152410217E+03  1.42063146738863406E+03  2.54945845509940661E+01  1.20224519305126987E+00  4.91509837814559369E-02  1.09252167472422695E-03  8.31086996324282053E-06  0.00000000000000000E+00
  402.000000  6.29080769497879373E+03  4.87239129690755453E+03  1.39213716079384176E+03  2.50769457358985619E+01  1.15437716730123996E+00  4.68761984189842509E-02  1.03039761369532975E-03  7.77816493224159643E-06  0.00000000000000000E+00
  404.000000  6.24080530937551703E+03  4.85134792612086858E+03  1.36364839896047329E+03  2.46550977560090203E+01  1.10820828793498216E+00  4.46992290648626847E-02  9.71741527940631782E-04  7.27963959148143816E-06  0.00000000000000000E+00
  406.000000  6.18913864724549421E+03  4.82862611012975503E+03  1.33517609869069679E+03  2.42292105204986044E+01  1.06368843381237888E+00  4.26162957470402476E-02  9.16361924638509073E-04  6.81305917707910237E-06  0.00000000000000000E+00
  408.000000  6.13581505598978129E+03  4.80421848041567682E+03  1.30673475164379397E+03  2.37995587759169211E+01  1.02077085537203582E+00  4.06238431237718328E-02  8.64079540367507270E-04  6.37635703879315134E-06  0.00000000000000000E+00
  410.000000  6.08086208239791995E+03  4.77813439304367330E+03  1.27834222334639207E+03  2.33665150740405458E+01  9.79411724085724078E-01  3.87185157671852895E-02  8.14726342757921647E-04  5.96761879044834642E-06  0.00000000000000000E+00
  412.000000  6.02432737526123856E+03  4.75040005744726932E+03  1.25001953502613515E+03  2.29305421876068536E+01  9.39569734197730377E-01  3.68971363280800740E-02  7.68144632738725682E-04  5.58506823256843964E-06  0.00000000000000000E+00
  414.000000  5.96627844946972527E+03  4.72105854285312944E+03  1.22179062967565642E+03  2.24921850881370204E+01  9.01205753180397418E-01  3.51566863307647554E-02  7.24186235719295897E-04  5.22705484021955515E-06  0.00000000000000000E+00
  416.000000  5.90680231767124769E+03  4.69016966692710685E+03  1.19368212373023903E+03  2.20520626036973297E+01  8.64282517038931997E-01  3.34942893506923814E-02  6.82711771289865326E-04  4.89204263136517886E-06  0.00000000000000000E+00
  418.000000  5.84600499735831181E+03  4.65780977293325213E+03  1.16572304581793196E+03  2.16108588757347988E+01  8.28764366463788815E-01  3.19071963370009468E-02  6.43589992247297856E-04  4.57860025159101115E-06  0.00000000000000000E+00
  420.000000  5.78401090311704866E+03  4.62407140340720252E+03  1.13794456420141796E+03  2.11693147331602738E+01  7.94617019835491156E-01  3.03927728554990000E-02  6.06697184921266243E-04  4.28539212989467962E-06  0.00000000000000000E+00
  422.000000  5.72096213565645940E+03  4.58906288000388213E+03  1.11037970475872203E+03  2.07282190988059085E+01  7.61807379210189595E-01  2.89484880439402834E-02  5.71916623865103028E-04  4.01117057738414990E-06  0.00000000000000000E+00
  424.000000  5.65701768104448092E+03  4.55290780072322650E+03  1.08306306161929274E+03  2.02884005384021329E+01  7.30303365626634116E-01  2.75719050893455213E-02  5.39138074964588343E-04  3.75476871621277049E-06  0.00000000000000000E+00
  426.000000  5.59235253522999301E+03  4.51574446709208132E+03  1.05603050285654717E+03  1.98507190555238289E+01  7.00073780349477870E-01  2.62606730556300162E-02  5.08257341894359851E-04  3.51509413994926944E-06  0.00000000000000000E+00
  428.000000  5.52715677036139823E+03  4.47772525504429814E+03  1.02931887391339956E+03  1.94160582278401002E+01  6.71088188977205569E-01  2.50125199080606306E-02  4.79175851610607803E-04  3.29112321891635907E-06  0.00000000000000000E+00
  430.000000  5.46163456053197660E+03  4.43901594413409293E+03  1.00296570167279947E+03  1.89853177706467484E+01  6.43316825669252967E-01  2.38252465982842707E-02  4.51800275207432233E-04  3.08189597489805026E-06  0.00000000000000000E+00
  432.000000  5.39600318535411316E+03  4.39979502032267101E+03  9.77008902262156539E+02  1.85594066034325387E+01  6.16730515070187502E-01  2.26967220894596575E-02  4.26042180989744308E-04  2.88651145913370455E-06  0.00000000000000000E+00
  434.000000  5.33049203012873204E+03  4.36025296785714727E+03  9.51486495776383663E+02  1.81392364843338854E+01  5.91300609811346023E-01  2.16248792149717206E-02  4.01817717034693561E-04  2.70412357578723130E-06  0.00000000000000000E+00
  436.000000  5.26534160132086163E+03  4.32059156571323547E+03  9.26436331107231467E+02  1.77257162661185070E+01  5.66998941742288820E-01  2.06077112762348587E-02  3.79047320839139305E-04  2.53393730023451864E-06  0.00000000000000000E+00
  438.000000  5.20080257555626122E+03  4.28102320368748497E+03  9.01895823967513138E+02  1.73197468160308787E+01  5.43797785277671197E-01  1.96432692951418117E-02  3.57655453895234620E-04  2.37520524767387719E-06  0.00000000000000000E+00
  440.000000  5.13713489942889828E+03  4.24177023251452010E+03  8.77901710994813925E+02  1.69222166307007811E+01  5.21669831435220388E-01  1.87296598448997778E-02  3.37570359214095029E-04  2.22722455285756935E-06  0.00000000000000000E+00
  442.000000  5.07460695607679736E+03  4.20306436136674711E+03  8.54489822515573564E+02  1.65339981666234834E+01  5.00588171288362527E-01  1.78650433895404456E-02  3.18723839943604555E-04  2.08933402629609056E-06  0.00000000000000000E+00
  444.000000  5.01349481276550705E+03  4.16514611478429106E+03  8.31694876151898939E+02  1.61559448966191468E+01  4.80526287661612761E-01  1.70476330674600093E-02  3.01051057312823420E-04  1.96091155620260661E-06  0.00000000000000000E+00
  446.000000  4.95408156165790660E+03  4.12826435951022086E+03  8.09550292974765739E+02  1.57888890933801953E+01  4.61458053963596904E-01  1.62756938582624411E-02  2.84490346195367982E-04  1.84137172883413560E-06  0.00000000000000000E+00
  448.000000  4.89665676358244855E+03  4.09267590989385826E+03  7.88088037361380998E+02  1.54336403328395111E+01  4.43357739084585478E-01  1.55475420751587986E-02  2.68983046627082115E-04  1.73016364283263212E-06  0.00000000000000000E+00
  450.000000  4.84151600196839900E+03  4.05864521848594313E+03  7.67338481117225456E+02  1.50909847026978579E+01  4.26200017287185373E-01  1.48615451274409782E-02  2.54473349647501884E-04  1.62676889574763105E-06  0.00000000000000000E+00
  452.000000  4.78896055123424685E+03  4.02644415620482550E+03  7.47330291791954323E+02  1.47616846951168537E+01  4.09959981995526634E-01  1.42161214993129417E-02  2.40908155866648518E-04  1.53069972319823977E-06  0.00000000000000000E+00
  454.000000  4.73929716079925765E+03  3.99635188399398203E+03  7.28090344466343936E+02  1.44464797572539876E+01  3.94613162342647927E-01  1.36097408927208802E-02  2.28236945192084013E-04  1.44149727314908822E-06  0.00000000000000000E+00
  456.000000  4.69283795254539928E+03  3.96865481521148104E+03  7.09643655628823126E+02  1.41460874689565639E+01  3.80135541271073407E-01  1.30409244828791938E-02  2.16411656188568799E-04  1.35872999957290798E-06  0.00000000000000000E+00
  458.000000  4.64990042596683452E+03  3.94364666506121102E+03  6.92013337104530137E+02  1.38612053133926132E+01  3.66503573898804169E-01  1.25082452359406449E-02  2.05386573584606788E-04  1.28199216137506366E-06  0.00000000000000000E+00
  460.000000  4.61080756136279706E+03  3.92162858014388485E+03  6.75220567353271917E+02  1.35925130035146857E+01  3.53694204762252162E-01  1.20103282386670920E-02  1.95118222485912002E-04  1.21090241388103210E-06  0.00000000000000000E+00
  462.000000  4.57588800719455867E+03  3.90290933760767984E+03  6.59284576818346181E+02  1.33406753247451473E+01  3.41684882426983472E-01  1.15458509899189037E-02  1.85565267903745767E-04  1.14510248144461654E-06  0.00000000000000000E+00
  464.000000  4.54547633304836108E+03  3.88780559932573851E+03  6.44222643384680623E+02  1.31063454518512046E+01  3.30453569814609327E-01  1.11135436031656876E-02  1.76688418254097141E-04  1.08425590082943060E-06  0.00000000000000000E+00
